tiempo_s,emg_mV
0.0,0.0030613755027652334
0.0005,0.12301939679404153
0.001,0.1818270135175875
0.0015,0.1573859448155944
0.002,0.07519185275868746
0.0025,-0.013226048622824104
0.003,-0.060510151055554205
0.0035,-0.04629824157294304
0.004,0.013097648195571205
0.0045000000000000005,0.07330653117330763
0.005,0.08953256112368059
0.0055,0.04816422622975785
0.006,-0.021995349021430195
0.006500000000000001,-0.07044755682071048
0.007,-0.06384114211779376
0.0075,-0.012511101035773454
0.008,0.03871869112204732
0.0085,0.04937564452546132
0.009000000000000001,0.01756418774067746
0.0095,-0.021254209710984715
0.01,-0.027932710903021556
0.0105,0.005660383600680368
0.011,0.04931411722785079
0.0115,0.05917749833290808
0.012,0.01609375408214221
0.0125,-0.054337983783902685
0.013000000000000001,-0.10243128156793625
0.0135,-0.09901862783483761
0.014,-0.05888557548889229
0.0145,-0.022360151329965237
0.015,-0.017849359058419747
0.0155,-0.037494806340824624
0.016,-0.04309233831237045
0.0165,-0.0029993738826213246
0.017,0.06702136130074239
0.0175,0.10688573967307749
0.018000000000000002,0.07100180634440988
0.0185,-0.015946155035809303
0.019,-0.07530593617333146
0.0195,-0.0541336405217685
0.02,0.01762595551673409
0.0205,0.059891062187843486
0.021,0.030837926217388203
0.021500000000000002,-0.031466000650079914
0.022,-0.06047815213434364
0.0225,-0.037755590117118557
0.023,-0.0030170520382203254
0.0235,0.0033996762486440887
0.024,-0.012276469694713648
0.0245,-0.012751646149551954
0.025,0.021646470261125397
0.025500000000000002,0.0724446823070804
0.026000000000000002,0.10615894755173279
0.0265,0.10467976559731937
0.027,0.07138673451373481
0.0275,0.020226361499095506
0.028,-0.029444332694079742
0.0285,-0.050978877647686015
0.029,-0.021548446537462334
0.029500000000000002,0.05146068923367195
0.03,0.12193403424410465
0.0305,0.13866646663951449
0.031,0.09159010625833802
0.0315,0.017769290111631156
0.032,-0.04016370034233598
0.0325,-0.07261175153615565
0.033,-0.09382355644964074
0.0335,-0.10484413891282007
0.034,-0.08489512323542797
0.0345,-0.023849221370771393
0.035,0.0503455362393446
0.035500000000000004,0.08776960945878978
0.036000000000000004,0.060296682620094785
0.0365,-0.011823732216938741
0.037,-0.0761433146905281
0.0375,-0.09228539879831991
0.038,-0.06268814714767572
0.0385,-0.02034629754432455
0.039,0.009736633708793312
0.0395,0.02904516563341943
0.04,0.044938714991916935
0.0405,0.04377543324382515
0.041,-0.00047325126736785404
0.0415,-0.08773049350502671
0.042,-0.17292895364811764
0.0425,-0.19832606247257678
0.043000000000000003,-0.1469515576669625
0.043500000000000004,-0.05740314590356029
0.044,0.017459094542884676
0.0445,0.060418989341289
0.045,0.09343590659262073
0.0455,0.13709859859331158
0.046,0.17655600256544032
0.0465,0.1707112512601122
0.047,0.0943725711815403
0.0475,-0.025785688678127812
0.048,-0.11725488684329455
0.0485,-0.11459272951585722
0.049,-0.018005891002467814
0.0495,0.10072585363323426
0.05,0.1564317976263068
0.0505,0.11769820256179529
0.051000000000000004,0.021911191264950093
0.051500000000000004,-0.06480034597322011
0.052000000000000005,-0.09757032857742948
0.0525,-0.07376262711635084
0.053,-0.020983067518891934
0.0535,0.027549466917044893
0.054,0.05080569600496938
0.0545,0.04599717699879091
0.055,0.02541777249565902
0.0555,0.00551857972210425
0.056,-0.005804728917845237
0.0565,-0.01137120401497075
0.057,-0.01339377244481821
0.0575,-0.005648626968430775
0.058,0.015317251787483185
0.0585,0.03495671776294931
0.059000000000000004,0.029837360262443685
0.059500000000000004,-0.004815486044100345
0.06,-0.04626685191633094
0.0605,-0.06683065225728439
0.061,-0.05804084150177885
0.0615,-0.029694549755398716
0.062,0.0052371358389729
0.0625,0.03589654371803643
0.063,0.04987493119778474
0.0635,0.03726515754235074
0.064,0.0023329245254349925
0.0645,-0.033895501140362265
0.065,-0.04785521391146009
0.0655,-0.03246179947171968
0.066,-0.00131161240629828
0.0665,0.026912605270923193
0.067,0.04484595690581304
0.0675,0.054291244700285006
0.068,0.053806961180579156
0.0685,0.03852527431986218
0.069,0.013618473140511822
0.0695,-9.891801170565373e-05
0.07,0.01783768071800354
0.07050000000000001,0.06304156522116484
0.07100000000000001,0.1012403032767743
0.07150000000000001,0.09532510737248567
0.07200000000000001,0.041354818468388156
0.0725,-0.0253439225337004
0.073,-0.06286073167790103
0.0735,-0.06064039884165244
0.074,-0.0440120156855352
0.0745,-0.04195156114926439
0.075,-0.05347728205231749
0.0755,-0.050745516435487616
0.076,-0.016040283216579933
0.0765,0.03055883598184778
0.077,0.04607016754369048
0.0775,0.0073803429932835455
0.078,-0.06187435352894698
0.0785,-0.10717820867190314
0.079,-0.08836178881660152
0.0795,-0.013808353615151514
0.08,0.06780629708894083
0.0805,0.10936693480751719
0.081,0.09921190166632651
0.0815,0.058753003027090675
0.082,0.016736025463169
0.0825,-0.010133700036661844
0.083,-0.01935276485066745
0.0835,-0.0164108301907482
0.084,-0.008778451875185698
0.0845,-0.0017806053133141058
0.085,0.001925619587147656
0.0855,-0.001857627695260598
0.08600000000000001,-0.020269129008800475
0.08650000000000001,-0.05320058342907522
0.08700000000000001,-0.08132001789121396
0.08750000000000001,-0.07444279734383885
0.088,-0.020615906163704664
0.0885,0.05414391505545992
0.089,0.10053226320935711
0.0895,0.0846004023848373
0.09,0.01586673607022934
0.0905,-0.059142842648142895
0.091,-0.09083779678652999
0.0915,-0.05938776558575172
0.092,0.01599410364855522
0.0925,0.09185844471758528
0.093,0.1270104576747759
0.0935,0.10684575986587684
0.094,0.050506024438773195
0.0945,-0.007290924729690188
0.095,-0.04438628596881269
0.0955,-0.060205186091856634
0.096,-0.059556583648315585
0.0965,-0.03828336678385522
0.097,0.007091933190541442
0.0975,0.061189339915513424
0.098,0.09341341411995878
0.0985,0.08402706005098963
0.099,0.042544002442672244
0.0995,-0.002225294858626541
0.1,-0.027968513777524198
0.1005,-0.03235115912183996
0.101,-0.022930916915686116
0.1015,-0.0013473221633299066
0.10200000000000001,0.035360382833451186
0.10250000000000001,0.08108935523360908
0.10300000000000001,0.1180941316071798
0.10350000000000001,0.12951174128342266
0.10400000000000001,0.10954533306038435
0.1045,0.06441334221003445
0.105,0.01157335931800577
0.1055,-0.02478059766278727
0.106,-0.030435625691408952
0.1065,-0.01855792688813339
0.107,-0.021949711621791223
0.1075,-0.05957890951879034
0.108,-0.11224835567644603
0.1085,-0.13588834952342496
0.109,-0.09965195233925687
0.1095,-0.013194224036311368
0.11,0.07770618968466785
0.1105,0.12216360637705383
0.111,0.09922971099073356
0.1115,0.030444449682378118
0.112,-0.03943038673867216
0.1125,-0.07584118186046442
0.113,-0.07518407440205721
0.1135,-0.06012498569082028
0.114,-0.056986461673015576
0.1145,-0.07406104094145635
0.115,-0.09631451314184991
0.1155,-0.09840379338727413
0.116,-0.06539021270464056
0.1165,-0.005463361290077226
0.117,0.05538006686791571
0.11750000000000001,0.09158932020826582
0.11800000000000001,0.09349424273757803
0.11850000000000001,0.06982387655156966
0.11900000000000001,0.03984333834431875
0.11950000000000001,0.02267019531082952
0.12,0.028528527751711278
0.1205,0.0534206140396633
0.121,0.07894570758857518
0.1215,0.08112978352563568
0.122,0.04845708341571694
0.1225,-0.0037190166173548186
0.123,-0.04092738859415744
0.1235,-0.03801995350903424
0.124,-0.0010045469909703512
0.1245,0.03952260213558665
0.125,0.05506497562907413
0.1255,0.04097277091916111
0.126,0.01635517619444209
0.1265,0.0046497605354636935
0.127,0.013596301034891341
0.1275,0.03181497901492105
0.128,0.04036313711880512
0.1285,0.026598188354404972
0.129,-0.006901019211715588
0.1295,-0.042805583697446636
0.13,-0.06256231579634719
0.1305,-0.06300428393510918
0.131,-0.05694312877008405
0.1315,-0.055360850399155684
0.132,-0.05108496336419751
0.1325,-0.023233363786855744
0.133,0.03866630552235678
0.1335,0.11331000071964104
0.134,0.15505980416190793
0.1345,0.13065646881863657
0.135,0.05117593714410662
0.1355,-0.0348852677284377
0.136,-0.08094336767362798
0.1365,-0.0742332009030161
0.137,-0.0332243955481615
0.1375,0.01709183032702944
0.138,0.06132711185564011
0.1385,0.08938494966168035
0.139,0.08815975666081463
0.1395,0.04910661923833545
0.14,-0.01367039561424973
0.1405,-0.06234351470515661
0.14100000000000001,-0.06364419349058997
0.14150000000000001,-0.019475374973903205
0.14200000000000002,0.03528571922051374
0.14250000000000002,0.06425657071423312
0.14300000000000002,0.05590248449802201
0.14350000000000002,0.025243304380228416
0.14400000000000002,-0.00062792654423086
0.1445,-0.00030633882376178076
0.145,0.02755442355308939
0.1455,0.06225011427720328
0.146,0.07746585642973615
0.1465,0.06307385362042554
0.147,0.028763547814864336
0.1475,-0.01299762710809276
0.148,-0.05894480227606542
0.1485,-0.103658278855216
0.149,-0.12465856851040548
0.1495,-0.09671066400324746
0.15,-0.028315515298530304
0.1505,0.028982320705876686
0.151,0.026210629460110154
0.1515,-0.02631561970664704
0.152,-0.06323253657240521
0.1525,-0.03424499317896772
0.153,0.03916302614939226
0.1535,0.0874371604841139
0.154,0.06842845350680073
0.1545,0.008487112560121225
0.155,-0.031391587665742265
0.1555,-0.020023755112126895
0.156,0.01811386109981583
0.1565,0.03433122747180467
0.157,0.0060923012123435165
0.1575,-0.04147997228095248
0.158,-0.060080934983946274
0.1585,-0.024865599016189698
0.159,0.04290021594522599
0.1595,0.09999428990090209
0.16,0.12216900999199469
0.1605,0.11567290129038882
0.161,0.09655962661867874
0.1615,0.07294475830712656
0.162,0.04754801832889597
0.1625,0.024430313704680573
0.163,0.006841213108725805
0.1635,-0.0061341498371561675
0.164,-0.016552080158249008
0.1645,-0.022651554720058406
0.165,-0.01813058826258388
0.1655,0.0018659054660512178
0.166,0.030190227926735962
0.1665,0.0439586299860355
0.167,0.01931290522793072
0.1675,-0.04374321206865962
0.168,-0.11298695684863937
0.1685,-0.1462735679646851
0.169,-0.12542678119935594
0.1695,-0.06802583102940224
0.17,-0.007360827453779287
0.1705,0.03420996652893771
0.171,0.051734387419269195
0.1715,0.04909012975596458
0.17200000000000001,0.035876646508403644
0.17250000000000001,0.028166684580883207
0.17300000000000001,0.03756497015542777
0.17350000000000002,0.05608930139789236
0.17400000000000002,0.06152219037199247
0.17450000000000002,0.04309118121469677
0.17500000000000002,0.016221608596749173
0.17550000000000002,0.006072323216905852
0.176,0.019117827356114555
0.1765,0.03657873334675296
0.177,0.035211059240634585
0.1775,0.00960746194050383
0.178,-0.025261313868836562
0.1785,-0.04767156760362539
0.179,-0.045757794294258386
0.1795,-0.02667949827553471
0.18,-0.010056330360487692
0.1805,-0.009358286908401578
0.181,-0.01925187616786305
0.1815,-0.02043675640435601
0.182,0.0032451973546317597
0.1825,0.04819298657994559
0.183,0.08972992360249685
0.1835,0.10295204109684039
0.184,0.08780448531667674
0.1845,0.06910801263781169
0.185,0.0700231022820781
0.1855,0.08952696142186234
0.186,0.10733980525034516
0.1865,0.10683054163455803
0.187,0.08923219950223095
0.1875,0.06599245794252831
0.188,0.0420806143220996
0.1885,0.01278883963323519
0.189,-0.022000037286458336
0.1895,-0.04759321586180042
0.19,-0.04718652846455072
0.1905,-0.024591772888934573
0.191,-0.005859625960207829
0.1915,-0.011858515472443062
0.192,-0.03102418411635395
0.1925,-0.02741549887348496
0.193,0.01756131101058235
0.1935,0.07458897063329681
0.194,0.0870364550671941
0.1945,0.026837142678323975
0.195,-0.07242935483702814
0.1955,-0.14187205677684153
0.196,-0.1380906329165437
0.1965,-0.07729996367860101
0.197,-0.011588621832395072
0.1975,0.020066090275857963
0.198,0.01248654451599315
0.1985,-0.0216411777619112
0.199,-0.0675472471104062
0.1995,-0.10429141099960305
0.2,-0.10467211226400813
0.2005,-0.05780876189690806
0.201,0.011341596214280499
0.2015,0.05903481632319954
0.202,0.06412354352140708
0.2025,0.04637128516617865
0.203,0.039029219461000644
0.20350000000000001,0.049191407660801295
0.20400000000000001,0.05575330066720355
0.20450000000000002,0.04523472894381037
0.20500000000000002,0.03364638544972835
0.20550000000000002,0.04309236300254074
0.20600000000000002,0.06751561317353925
0.20650000000000002,0.07651774905789738
0.20700000000000002,0.05126047529593954
0.20750000000000002,0.004948933904411696
0.20800000000000002,-0.0337864204801615
0.2085,-0.04825648804749315
0.209,-0.04085763554501258
0.2095,-0.02183993374048527
0.21,0.0006001939469338548
0.2105,0.02148016795801973
0.211,0.03762991819267699
0.2115,0.047720062299720915
0.212,0.051767610285543
0.2125,0.04984698369833276
0.213,0.04215056381613515
0.2135,0.02992245230079312
0.214,0.016289393693065042
0.2145,0.007387723106381633
0.215,0.010411671611945091
0.2155,0.02582551803147827
0.216,0.04279048363826692
0.2165,0.04849560706298531
0.217,0.04263136265410176
0.2175,0.0370209975871035
0.218,0.038823970276217715
0.2185,0.039113957392173354
0.219,0.024111011765576163
0.2195,-0.0021827433015858717
0.22,-0.013418647949448817
0.2205,0.01369308789497974
0.221,0.06966357342813326
0.2215,0.11508674531627579
0.222,0.11708445622412242
0.2225,0.07868260807247954
0.223,0.02942723709917606
0.2235,-0.006082801119844136
0.224,-0.0243512210018799
0.2245,-0.03474794114643407
0.225,-0.04581939151373259
0.2255,-0.059455652330010704
0.226,-0.07066765545908175
0.2265,-0.07022158434727929
0.227,-0.05193602906266374
0.2275,-0.021352993685168707
0.228,0.004829964469544163
0.2285,0.01269380192756659
0.229,0.004584878416600817
0.2295,-0.005399296134370263
0.23,-0.008891497978811285
0.2305,-0.010535480173391466
0.231,-0.01685526594380673
0.2315,-0.02377677633826593
0.232,-0.020234061079980523
0.2325,-0.004003627292461429
0.233,0.010501110790822346
0.2335,0.005681654606371108
0.234,-0.017130689872977205
0.23450000000000001,-0.033897128696976156
0.23500000000000001,-0.020201127050211883
0.23550000000000001,0.024290845481937204
0.23600000000000002,0.07655087071577796
0.23650000000000002,0.11278296630591782
0.23700000000000002,0.12480030921047704
0.23750000000000002,0.115715287155288
0.23800000000000002,0.09001158186400976
0.23850000000000002,0.054058044391481014
0.23900000000000002,0.019859677845992817
0.23950000000000002,-0.0003397798433488232
0.24,-0.0029334995980765093
0.2405,0.006790304458098935
0.241,0.02216036139729091
0.2415,0.0411284846222013
0.242,0.06439658316170768
0.2425,0.08669975414124052
0.243,0.09240584931519212
0.2435,0.06645839887601296
0.244,0.012411968132792928
0.2445,-0.04402459872464586
0.245,-0.07247609348834246
0.2455,-0.06080634758098157
0.246,-0.025874118304340082
0.2465,-0.004185045161801954
0.247,-0.023484744421865125
0.2475,-0.07426466038408532
0.248,-0.11376881272224675
0.2485,-0.1074997988074581
0.249,-0.06415928441535786
0.2495,-0.021463985034238242
0.25,-0.0008320068977048149
0.2505,0.011700778238343753
0.251,0.03630506764088742
0.2515,0.06331111765855246
0.252,0.060713589539054084
0.2525,0.0180061264189223
0.253,-0.030638866729951246
0.2535,-0.0374279972060748
0.254,0.007216832239931531
0.2545,0.06257337172805202
0.255,0.08096053100828166
0.2555,0.05869255487500771
0.256,0.037467875528017544
0.2565,0.054864606207331586
0.257,0.10097401685345889
0.2575,0.1305244737644013
0.258,0.11316504872482244
0.2585,0.06153026124642676
0.259,0.011426449493110903
0.2595,-0.012259412432338612
0.26,-0.006857987641092131
0.2605,0.017067301385982104
0.261,0.04516506099918873
0.2615,0.06350726532710828
0.262,0.06241007834775625
0.2625,0.04080332910132869
0.263,0.007504902855202264
0.2635,-0.02315185185471847
0.264,-0.040090627397870116
0.2645,-0.04219575662326342
0.265,-0.03526941579985195
0.2655,-0.022271506771539606
0.266,-0.0009750640479209913
0.2665,0.026024483842287616
0.267,0.043873031300407
0.2675,0.034959922909907695
0.268,-0.003380696954534892
0.2685,-0.053742071882664735
0.269,-0.09022530347214042
0.2695,-0.09265983785850997
0.27,-0.05484967752675983
0.2705,0.011153631583852703
0.271,0.07736290348005921
0.2715,0.11400140160009413
0.272,0.10828787643383604
0.2725,0.07310977023733367
0.273,0.03941162421658707
0.2735,0.03578065908467667
0.274,0.06446645491767584
0.2745,0.09238276492815607
0.275,0.07475528644572985
0.2755,-0.0006150741211653642
0.276,-0.09253024286632903
0.2765,-0.13752506727838693
0.277,-0.10564685888735029
0.2775,-0.025212502671284574
0.278,0.0448234968444274
0.2785,0.0630899874447101
0.279,0.03073311352704794
0.2795,-0.018928473517496193
0.28,-0.047151428817625116
0.2805,-0.03254794803709482
0.281,0.018161553059824333
0.28150000000000003,0.0742918937624054
0.28200000000000003,0.10039942228532367
0.28250000000000003,0.08148838752467663
0.28300000000000003,0.035918616539602974
0.28350000000000003,0.0007563956261618679
0.28400000000000003,-0.003149400779813755
0.28450000000000003,0.008669034674564896
0.28500000000000003,0.0063633691704879
0.28550000000000003,-0.01344712299289548
0.28600000000000003,-0.021287349970736974
0.28650000000000003,0.006022182985121869
0.28700000000000003,0.05017654936826156
0.28750000000000003,0.06591454573130778
0.28800000000000003,0.02987130809965806
0.2885,-0.03142592455673929
0.289,-0.06536299789556126
0.2895,-0.04378279783688514
0.29,0.013110600473942732
0.2905,0.06338409675892262
0.291,0.08735807357335587
0.2915,0.0980794942788758
0.292,0.11139677243768294
0.2925,0.11830479364281749
0.293,0.09615428112814076
0.2935,0.043219235840934504
0.294,-0.010595789298372406
0.2945,-0.03371936252894197
0.295,-0.026712382049365074
0.2955,-0.017412047728860187
0.296,-0.024676099768602203
0.2965,-0.037181403177902986
0.297,-0.03235716179512413
0.2975,-0.008744154846367713
0.298,0.010144178436340287
0.2985,0.004251030319768978
0.299,-0.018951841798474495
0.2995,-0.03331788982603899
0.3,-0.022174912984886063
0.3005,0.007446535856627594
0.301,0.035018060828676326
0.3015,0.04414427512014531
0.302,0.03133461216560257
0.3025,0.0063745086790039165
0.303,-0.010494357731481352
0.3035,0.0019618119149190667
0.304,0.048140133004747704
0.3045,0.10474474366189752
0.305,0.13388447772405293
0.3055,0.11167384117208214
0.306,0.046255440129455566
0.3065,-0.028481996284773693
0.307,-0.07592220431691553
0.3075,-0.07978577726740163
0.308,-0.052615381193177276
0.3085,-0.023782770138802877
0.309,-0.014956453098802187
0.3095,-0.02250651592664479
0.31,-0.023102373727991753
0.3105,0.0014239719691207442
0.311,0.04345033622138194
0.3115,0.07413260448722131
0.312,0.06993511726628956
0.3125,0.036248929801609035
0.313,0.005440149553588824
0.3135,0.009666630760160855
0.314,0.05138395003999817
0.3145,0.09762765414393917
0.315,0.10541490341397884
0.3155,0.05906801408376925
0.316,-0.01306930047843113
0.3165,-0.06036074676595203
0.317,-0.05283400079146346
0.3175,-0.004935160591557497
0.318,0.0435230963657691
0.3185,0.06734050343540275
0.319,0.07178139303628747
0.3195,0.07165057216484826
0.32,0.06813405757371004
0.3205,0.053694120074769244
0.321,0.03048424073011055
0.3215,0.012241741296531385
0.322,0.009239352159253868
0.3225,0.0186130061996005
0.323,0.02946633018030837
0.3235,0.03214706665220718
0.324,0.022510497931603417
0.3245,0.0031326894332530625
0.325,-0.016187907573353484
0.3255,-0.022088276276627274
0.326,-0.007897451133757056
0.3265,0.01596714993233104
0.327,0.02538495438257673
0.3275,0.0037671469649235307
0.328,-0.03896457131167218
0.3285,-0.07258244752519508
0.329,-0.07100462265258678
0.3295,-0.029267478947060763
0.33,0.03595223810527095
0.3305,0.09368466038156743
0.331,0.11090986566658584
0.3315,0.07117933443724718
0.332,-0.010780145477086245
0.3325,-0.09320759581002268
0.333,-0.1296075501852442
0.3335,-0.09622275669552535
0.334,-0.010952414428041207
0.3345,0.07139039265576543
0.335,0.09424607743967758
0.3355,0.043665823634742716
0.336,-0.036420292540119144
0.3365,-0.07600902535108912
0.337,-0.035530610899475984
0.3375,0.060583874978394105
0.338,0.14456200921743004
0.3385,0.16069149827241416
0.339,0.10351587016481853
0.3395,0.011511800719135875
0.34,-0.06416765347421781
0.3405,-0.08611400777738426
0.341,-0.045408057014325987
0.3415,0.03336795631226573
0.342,0.10441646473401515
0.3425,0.12960075610776592
0.343,0.10154813827994123
0.3435,0.04326670723999904
0.34400000000000003,-0.00805896046819599
0.34450000000000003,-0.019431973309689488
0.34500000000000003,0.02006231178079902
0.34550000000000003,0.08710309924509933
0.34600000000000003,0.13300859676313612
0.34650000000000003,0.11756477166770343
0.34700000000000003,0.043469734160602916
0.34750000000000003,-0.0424380208360771
0.34800000000000003,-0.08690472134348828
0.34850000000000003,-0.07257711384758714
0.34900000000000003,-0.02450987988279458
0.34950000000000003,0.020114082948979962
0.35000000000000003,0.04198122325505121
0.35050000000000003,0.04277889497303338
0.35100000000000003,0.03193677042949865
0.35150000000000003,0.017231687040916373
0.352,0.0018388094809311572
0.3525,-0.01590962151946182
0.353,-0.036073228013447936
0.3535,-0.04686757831251147
0.354,-0.029320726189948368
0.3545,0.017871126399729292
0.355,0.06371420471949646
0.3555,0.06940911752977962
0.356,0.029665692565546603
0.3565,-0.02054830815191095
0.357,-0.04316069199669075
0.3575,-0.03042946842110211
0.358,0.0025155442499527406
0.3585,0.04343663833960894
0.359,0.08688614711448575
0.3595,0.11953124782882849
0.36,0.11880638723540447
0.3605,0.07252787709686838
0.361,-0.002777929646676145
0.3615,-0.0649953984964088
0.362,-0.07267942646220596
0.3625,-0.019072084744023388
0.363,0.053877606429703254
0.3635,0.08293037103181268
0.364,0.03790338773270618
0.3645,-0.047646947159441205
0.365,-0.10494942433105321
0.3655,-0.09132064645413843
0.366,-0.023014965528550962
0.3665,0.04689104701612408
0.367,0.07667858997139812
0.3675,0.06598543905088547
0.368,0.047527920082788035
0.3685,0.05293612709681496
0.369,0.08477061279674232
0.3695,0.11921882584333338
0.37,0.1315778271149803
0.3705,0.11383611853838302
0.371,0.06960840687857367
0.3715,0.004457010826341671
0.372,-0.06859132438943684
0.3725,-0.12085765998736193
0.373,-0.12315719877896923
0.3735,-0.07662445456701475
0.374,-0.019207313547042675
0.3745,0.008742205191919967
0.375,0.003461789797923918
0.3755,-0.004152958056803694
0.376,0.01299746840329115
0.3765,0.05083690856088652
0.377,0.08572359500324077
0.3775,0.10193984803102028
0.378,0.10051759200592573
0.3785,0.08847014336059023
0.379,0.06909549765171037
0.3795,0.042107151913553395
0.38,0.00885983790516535
0.3805,-0.02272292313092062
0.381,-0.039093310600208424
0.3815,-0.030448886833293682
0.382,-0.00012731272173058597
0.3825,0.0365757138308165
0.383,0.06137251508114848
0.3835,0.059701446103186166
0.384,0.025189083577002194
0.3845,-0.03292686461927801
0.385,-0.08656833584283906
0.3855,-0.1020820764229741
0.386,-0.06408853631622993
0.3865,0.011217257651891166
0.387,0.08446145476422698
0.3875,0.11615570057784856
0.388,0.0904921193120986
0.3885,0.026309807976923158
0.389,-0.03445202926127266
0.3895,-0.056333967295606774
0.39,-0.034442821583966936
0.3905,0.009334383270444849
0.391,0.05014298723093009
0.3915,0.07368785092360285
0.392,0.06982819293083392
0.3925,0.029440844392963066
0.393,-0.04024826195024656
0.3935,-0.10229233439925019
0.394,-0.10770387279562596
0.3945,-0.04021805173218912
0.395,0.05580739102556709
0.3955,0.10601813305114507
0.396,0.07642524673081279
0.3965,0.008460572984382282
0.397,-0.025057184175465735
0.3975,0.006026891463070913
0.398,0.06791639779485126
0.3985,0.10874621303507194
0.399,0.11093911232663546
0.3995,0.09681890098071427
0.4,0.09511035806846069
0.4005,0.11026848108420795
0.401,0.1208324466235069
0.4015,0.10125138346625902
0.402,0.04555994117046761
0.4025,-0.02494400865360575
0.403,-0.07409033807544299
0.4035,-0.07386763005927434
0.404,-0.022349757594368774
0.4045,0.05477109880709384
0.405,0.11896614150218716
0.4055,0.14133827552546735
0.406,0.1200641035655552
0.40650000000000003,0.07950364573878047
0.40700000000000003,0.04901502548382181
0.40750000000000003,0.03864175503838585
0.40800000000000003,0.032790633764326914
0.40850000000000003,0.006531990819172864
0.40900000000000003,-0.049422411986420924
0.40950000000000003,-0.11636638283316898
0.41000000000000003,-0.16045633876436288
0.41050000000000003,-0.16021974163452718
0.41100000000000003,-0.1218909223587942
0.41150000000000003,-0.06881797701130479
0.41200000000000003,-0.019661237719401488
0.41250000000000003,0.0206676313191504
0.41300000000000003,0.0515257572401624
0.41350000000000003,0.06544124627943688
0.41400000000000003,0.053492768488347456
0.41450000000000004,0.021081039399075133
0.41500000000000004,-0.010021087817547222
0.41550000000000004,-0.020026609700761967
0.41600000000000004,-0.008215171575030206
0.4165,0.00971857273854258
0.417,0.016780482805202526
0.4175,0.005836511507247377
0.418,-0.017688588242959324
0.4185,-0.03862419062038808
0.419,-0.04112522503469604
0.4195,-0.022215074900995932
0.42,0.00315585296301147
0.4205,0.016317287063373834
0.421,0.016386023553780684
0.4215,0.022328256184417847
0.422,0.04915932910984411
0.4225,0.0866075651728425
0.423,0.10859151775950891
0.4235,0.10251503768614698
0.424,0.08206251797162231
0.4245,0.06917888315795523
0.425,0.06870374559049154
0.4255,0.06622796690718626
0.426,0.04978316728870632
0.4265,0.02524457714469213
0.427,0.00535522836290562
0.4275,-0.007373774690580141
0.428,-0.015069394265606518
0.4285,-0.008316651150046143
0.429,0.026355078585090695
0.4295,0.07939871955713998
0.43,0.11313389091655167
0.4305,0.09551927017819792
0.431,0.037609534111498324
0.4315,-0.011065496404611542
0.432,-0.009806320030991817
0.4325,0.03372193543023346
0.433,0.0764976884046234
0.4335,0.0886034260428984
0.434,0.07849017967186353
0.4345,0.06947984462230332
0.435,0.06416916385599056
0.4355,0.04234541891416147
0.436,-0.010052048230032355
0.4365,-0.07735306774807266
0.437,-0.11922022326815827
0.4375,-0.10110530557708948
0.438,-0.02812013713182293
0.4385,0.05050933300746325
0.439,0.07996750052582795
0.4395,0.04761539090574028
0.44,-0.010022476119636137
0.4405,-0.047217388675831556
0.441,-0.05123107714341022
0.4415,-0.044489499022150304
0.442,-0.051295442920108535
0.4425,-0.0675532780347736
0.443,-0.06285403356558987
0.4435,-0.012925189939436345
0.444,0.06689626288071134
0.4445,0.12425490241605593
0.445,0.11584856574922575
0.4455,0.054140695236732074
0.446,0.0011888247007360228
0.4465,0.008622283862725906
0.447,0.06448627759784811
0.4475,0.10625331242632491
0.448,0.08716963045280089
0.4485,0.02144072437318959
0.449,-0.0375517778433463
0.4495,-0.051166204715492526
0.45,-0.02162002180258722
0.4505,0.02153046270228124
0.451,0.04624191761013871
0.4515,0.035135383358394924
0.452,-0.005384241062695089
0.4525,-0.04655740588792447
0.453,-0.05453831226206216
0.4535,-0.015830176594164087
0.454,0.049124893426681485
0.4545,0.0987499635101446
0.455,0.10326479698416877
0.4555,0.07050696761616178
0.456,0.037825044770425024
0.4565,0.034064968000137155
0.457,0.050191698863994175
0.4575,0.05281512606234367
0.458,0.026806402546107118
0.4585,-0.0055343493842346545
0.459,-0.014534266526819207
0.4595,-0.002812206722027438
0.46,-0.0015293507654252437
0.4605,-0.02928963502631694
0.461,-0.06670590246826077
0.4615,-0.07558842784516544
0.462,-0.038206644122344174
0.4625,0.025876012018894258
0.463,0.07918109136674023
0.4635,0.09770299312981261
0.464,0.0835565742195807
0.4645,0.05402957695573569
0.465,0.02497927183969681
0.4655,0.004384309344494443
0.466,-0.0031801793245966126
0.4665,0.008486923301495072
0.467,0.04230802635162714
0.4675,0.08601881622288468
0.468,0.11091674175379507
0.4685,0.09191967558319297
0.46900000000000003,0.03320599865687156
0.46950000000000003,-0.028586298885894895
0.47000000000000003,-0.05143014897513577
0.47050000000000003,-0.022270416964648654
0.47100000000000003,0.03313968714463541
0.47150000000000003,0.07461175929839563
0.47200000000000003,0.08242859978737942
0.47250000000000003,0.06794343829960015
0.47300000000000003,0.052392579387494385
0.47350000000000003,0.04331047508885598
0.47400000000000003,0.035950367219101595
0.47450000000000003,0.029117817665041158
0.47500000000000003,0.028033067635418647
0.47550000000000003,0.03287164105609008
0.47600000000000003,0.034051301319128265
0.47650000000000003,0.0223384854889702
0.47700000000000004,0.0008310333752371921
0.47750000000000004,-0.014843352527209527
0.47800000000000004,-0.00983495521748558
0.47850000000000004,0.012986060327285586
0.47900000000000004,0.02910599570527917
0.47950000000000004,0.010839417887461747
0.48,-0.04442390214617381
0.4805,-0.10384615376924994
0.481,-0.1222190514017982
0.4815,-0.08226942325156508
0.482,-0.014960054389170231
0.4825,0.023586155264382496
0.483,0.002417232874257057
0.4835,-0.052937213592247914
0.484,-0.08324367933480399
0.4845,-0.05453381285685282
0.485,0.008676045767313147
0.4855,0.053476849108903275
0.486,0.05680348748144784
0.4865,0.045444509924326214
0.487,0.05934217167313502
0.4875,0.10373906158073086
0.488,0.1427313527346317
0.4885,0.13769874813850938
0.489,0.08720722680884671
0.4895,0.027324728323522632
0.49,-0.004664986045500244
0.4905,-0.0030108045164135644
0.491,0.009380957297672968
0.4915,0.010281010751533745
0.492,-0.001241753981019284
0.4925,-0.011068376962961476
0.493,-0.007330611374412949
0.4935,0.013086374357980313
0.494,0.04682810115993202
0.4945,0.08229570800370947
0.495,0.09937756067262173
0.4955,0.0835432406944287
0.496,0.04283325271589078
0.4965,0.0037236723414823675
0.497,-0.011923638559771332
0.4975,-0.0025383871474987368
0.498,0.01833881926271126
0.4985,0.03712139816722053
0.499,0.049332431489513516
0.4995,0.056962570966300544
0.5,0.0597028090411589
0.5005000000000001,0.052566358955956384
0.501,0.03479245557158406
0.5015000000000001,0.01733073036870387
0.502,0.0145419616628835
0.5025000000000001,0.02725549575181142
0.503,0.03901704863899507
0.5035000000000001,0.032227277244840626
0.504,0.0061591624991908945
0.5045000000000001,-0.02278999301416828
0.505,-0.03813485896942254
0.5055000000000001,-0.03994068689615471
0.506,-0.04292284288897006
0.5065000000000001,-0.05608946589288733
0.507,-0.06795271322544336
0.5075000000000001,-0.05838815477340911
0.508,-0.023464047628481755
0.5085000000000001,0.019206224916611114
0.509,0.05065966714038774
0.5095000000000001,0.06888575814501269
0.51,0.08263602752790301
0.5105000000000001,0.09178192768011602
0.511,0.08287208891597388
0.5115000000000001,0.04766919816754243
0.512,0.00034236134730991977
0.5125,-0.030332393597103484
0.513,-0.025275054243301606
0.5135,0.009853671264191
0.514,0.0498637861290987
0.5145,0.06940235617580712
0.515,0.0631755852139357
0.5155,0.04854948504599704
0.516,0.0447325279593387
0.5165,0.05217692691937059
0.517,0.056887916259545944
0.5175,0.05001294790949568
0.518,0.03595158847414272
0.5185,0.02270194925416953
0.519,0.011134446551548102
0.5195,-0.0020236905266829905
0.52,-0.012981262031589356
0.5205,-0.009891679940345446
0.521,0.012993910302170862
0.5215,0.04381868988107556
0.522,0.059538744036081954
0.5225,0.04223755550392893
0.523,-0.010153005206677624
0.5235,-0.08088573293353765
0.524,-0.1375799028768358
0.5245,-0.14748787381316542
0.525,-0.10143895563018411
0.5255,-0.02446403466286363
0.526,0.04166507365879853
0.5265,0.07025433015749202
0.527,0.06792018654757612
0.5275,0.06403082942112122
0.528,0.08139440224395553
0.5285,0.1152594293978705
0.529,0.14063894310853914
0.5295,0.13956667347524887
0.53,0.117234515850598
0.5305,0.08824602029776236
0.531,0.05319022477032042
0.5315,0.0006747886647973803
0.532,-0.06622685074656695
0.5325,-0.11868413612320919
0.533,-0.12709191333201655
0.5335,-0.09210471810909025
0.534,-0.041421401646524025
0.5345,0.0025727566503656873
0.535,0.04143114208113829
0.5355,0.08280476429389527
0.536,0.11400634506940036
0.5365,0.10827440977716116
0.537,0.06071349043399055
0.5375,0.0064833616355750735
0.538,-0.007976059649477079
0.5385,0.02885041983408229
0.539,0.08040201715070608
0.5395,0.09371254548333978
0.54,0.04454334967467124
0.5405,-0.04085711571384661
0.541,-0.10341716611047858
0.5415,-0.09652335560366447
0.542,-0.022896120397034984
0.5425,0.07000620416144367
0.543,0.12970354886642868
0.5435,0.1331629342346382
0.544,0.09027895150178623
0.5445,0.02863544809383598
0.545,-0.021039889609685065
0.5455,-0.03839388289359212
0.546,-0.026564427516951296
0.5465,-0.010423437657368771
0.547,-0.01339503075692358
0.5475,-0.03369951480252086
0.548,-0.045550153934871634
0.5485,-0.024041204386495017
0.549,0.03138082482563283
0.5495,0.09502506931516447
0.55,0.1313131014303216
0.5505,0.11425548894341668
0.551,0.04441510119970985
0.5515,-0.04012560231786745
0.552,-0.07829422588195652
0.5525,-0.03468555416364805
0.553,0.059724006799874586
0.5535,0.12882153810424035
0.554,0.11954417858652504
0.5545,0.04369560859887271
0.555,-0.0435675643595609
0.5555,-0.09369601775488601
0.556,-0.09377587091888356
0.5565,-0.0604524807996577
0.557,-0.01518731132660638
0.5575,0.03352520192803303
0.558,0.08502677828261039
0.5585,0.12808003410168606
0.559,0.13685678250467187
0.5595,0.09354135528975456
0.56,0.014846611580093528
0.5605,-0.0511937615814764
0.561,-0.06214220974953742
0.5615,-0.017992587015945367
0.562,0.03960755544154293
0.5625,0.06634996602669414
0.5630000000000001,0.0521915025641083
0.5635,0.019135623130349822
0.5640000000000001,-0.010100862173465406
0.5645,-0.031238934657526814
0.5650000000000001,-0.04782592201901519
0.5655,-0.0546445291536846
0.5660000000000001,-0.040806099900817086
0.5665,-0.004576500057352485
0.5670000000000001,0.0430093309383973
0.5675,0.087078755688418
0.5680000000000001,0.11603997386195222
0.5685,0.12425264866922056
0.5690000000000001,0.11408274640306386
0.5695,0.09173335704710862
0.5700000000000001,0.05720982227826263
0.5705,0.005769841047278715
0.5710000000000001,-0.054426879279550935
0.5715,-0.09447489386126891
0.5720000000000001,-0.08612749374842261
0.5725,-0.031529799615328785
0.5730000000000001,0.032676244945639935
0.5735,0.06197093678278478
0.5740000000000001,0.03831869781168531
0.5745,-0.014879146553892142
0.5750000000000001,-0.04972584860124112
0.5755,-0.029501013697080265
0.5760000000000001,0.04450594353297711
0.5765,0.13106966653515842
0.577,0.17213232599280845
0.5775,0.13244836955211886
0.578,0.031170235829198194
0.5785,-0.06677476987149866
0.579,-0.09991313648482278
0.5795,-0.05776752996042134
0.58,0.014813602694516493
0.5805,0.056858323408707875
0.581,0.039279026285714995
0.5815,-0.015134533486895202
0.582,-0.05267145082221144
0.5825,-0.03339280143453198
0.583,0.035145978413525
0.5835,0.10253506111354008
0.584,0.11623787881442532
0.5845,0.06481816679555903
0.585,-0.013934533449088097
0.5855,-0.06468054194813774
0.586,-0.05407124442291152
0.5865,0.011751220702214892
0.587,0.09339599373108613
0.5875,0.13995026399073693
0.588,0.12135127657063252
0.5885,0.05250465321825109
0.589,-0.017458424550760937
0.5895,-0.045045429990122676
0.59,-0.023147732941908167
0.5905,0.020561374542007654
0.591,0.04810246717670785
0.5915,0.039293453069333115
0.592,0.005747479879223116
0.5925,-0.02177312198802649
0.593,-0.022927309740078866
0.5935,-0.005030249128168241
0.594,0.007637269210109721
0.5945,-0.0016410498520213514
0.595,-0.028104752112363268
0.5955,-0.05302153817282784
0.596,-0.06208145853538809
0.5965,-0.054658695301706264
0.597,-0.036472012833885535
0.5975,-0.008725678517814696
0.598,0.029498869957788398
0.5985,0.068359616208208
0.599,0.08588671811650739
0.5995,0.06869724116032122
0.6,0.032568700547804155
0.6005,0.01327678526133824
0.601,0.03234556630047958
0.6015,0.07515103434766218
0.602,0.1063575929345565
0.6025,0.10475056995933071
0.603,0.07910661534987426
0.6035,0.05174949471541032
0.604,0.03387334695353489
0.6045,0.0215327036275679
0.605,0.011096711671486601
0.6055,0.008501763190342789
0.606,0.019155027676154276
0.6065,0.03579653978860521
0.607,0.044503490002597866
0.6075,0.0399968637320095
0.608,0.027796373590610095
0.6085,0.013388188895186837
0.609,-0.002726702186803189
0.6095,-0.01852755765163573
0.61,-0.025074284042119012
0.6105,-0.011350283396154594
0.611,0.02424433332510991
0.6115,0.0656751546912406
0.612,0.08472928680225625
0.6125,0.061764397669471706
0.613,0.005769235715554977
0.6135,-0.04744552198167487
0.614,-0.06107418501608797
0.6145,-0.02670793745010977
0.615,0.027107890746668535
0.6155,0.05596111212972065
0.616,0.03437549845349454
0.6165,-0.02546868089929917
0.617,-0.08590370798598986
0.6175,-0.11292602894461122
0.618,-0.09782760502539695
0.6185,-0.056991902963126395
0.619,-0.011676963084209287
0.6195,0.03262168351932414
0.62,0.08276897127985824
0.6205,0.13383220741257545
0.621,0.15935683649085802
0.6215,0.13524674006525952
0.622,0.06924020485385808
0.6225,-0.001316615685499213
0.623,-0.040559836466024665
0.6235,-0.03947167288667994
0.624,-0.013791967286296638
0.6245,0.015394755774331467
0.625,0.03629786076657884
0.6255000000000001,0.04673395402300892
0.626,0.04747781017771163
0.6265000000000001,0.040103548645786385
0.627,0.029658707650048598
0.6275000000000001,0.023108888925443622
0.628,0.0225237365609608
0.6285000000000001,0.023085121430052175
0.629,0.019927174363090598
0.6295000000000001,0.014808872756600923
0.63,0.013823216892015933
0.6305000000000001,0.01932218807001532
0.631,0.026492808663029867
0.6315000000000001,0.028523075830822264
0.632,0.023344290945429967
0.6325000000000001,0.014270894160503488
0.633,0.00550456493868404
0.6335000000000001,-0.0013277418175573824
0.634,-0.005924304730604761
0.6345000000000001,-0.005215282364407723
0.635,0.0068240385434659
0.6355000000000001,0.030991513543808805
0.636,0.05471348125760408
0.6365000000000001,0.05917871212945331
0.637,0.03995172501180473
0.6375000000000001,0.01648070346637867
0.638,0.013495436111581017
0.6385000000000001,0.032149942564167366
0.639,0.04594037595919244
0.6395000000000001,0.030100159287214455
0.64,-0.007584776358151645
0.6405,-0.03231674962227097
0.641,-0.021619203603736405
0.6415,0.00608612445370402
0.642,0.009966032193776977
0.6425,-0.025174810875817372
0.643,-0.06637843852456878
0.6435,-0.06469897707546346
0.644,-0.008352043039384291
0.6445,0.06317944737713074
0.645,0.10011633365219659
0.6455,0.09087490747621223
0.646,0.06428169383742388
0.6465,0.04881164082088366
0.647,0.04096180068343756
0.6475,0.018883837852701518
0.648,-0.01980951398514838
0.6485,-0.04616892481461405
0.649,-0.030614071346907537
0.6495,0.022045314488845995
0.65,0.07758194660395247
0.6505,0.10836262635727174
0.651,0.11129229709317033
0.6515,0.09012180053858461
0.652,0.03891949485379159
0.6525,-0.04303275092472575
0.653,-0.12686020897428912
0.6535,-0.15994444928167828
0.654,-0.10612566239561656
0.6545,0.016818049552419022
0.655,0.14307163226558206
0.6555,0.20790076076415592
0.656,0.19331534348575843
0.6565,0.1278816127046648
0.657,0.051451869258721146
0.6575,-0.011918256688011414
0.658,-0.05516159789420421
0.6585,-0.08023484988769404
0.659,-0.09232859019328263
0.6595,-0.09187874552049621
0.66,-0.07065798494631863
0.6605,-0.02436182156790802
0.661,0.030800256312128904
0.6615,0.0641630832665344
0.662,0.05786567305659768
0.6625,0.024051326221105222
0.663,-0.0077905507094799785
0.6635,-0.019230911986228158
0.664,-0.017673161412217375
0.6645,-0.022358603846903198
0.665,-0.036247290792610236
0.6655,-0.03770519669891063
0.666,-0.006098886699933652
0.6665,0.04926522706580227
0.667,0.09482675771118877
0.6675,0.10534510384610105
0.668,0.08332278671750994
0.6685,0.04871145719009114
0.669,0.018570197994533303
0.6695,-0.001480124347926751
0.67,-0.01193516957868186
0.6705,-0.010778446685550731
0.671,0.007891710729010515
0.6715,0.04532228383475957
0.672,0.08861921373430708
0.6725,0.11452620540358362
0.673,0.10894795187659906
0.6735,0.08301012683768677
0.674,0.06392549048554577
0.6745,0.06801255057758492
0.675,0.08620241725890689
0.6755,0.09542547386798303
0.676,0.07992759301662436
0.6765,0.04231680385571963
0.677,-0.002192994150054999
0.6775,-0.041303558309445904
0.678,-0.07476660232664001
0.6785,-0.106132295194132
0.679,-0.12780857763066336
0.6795,-0.12095176580208145
0.68,-0.07268706977935527
0.6805,0.00821949526719685
0.681,0.09113421074051045
0.6815,0.1375796661684911
0.682,0.1230633567934031
0.6825,0.05519769777397855
0.683,-0.02871432320439113
0.6835,-0.08777596271684782
0.684,-0.1045409031959525
0.6845,-0.08768789435332243
0.685,-0.053994758351590955
0.6855,-0.015063507473033507
0.686,0.01987738754117091
0.6865,0.03836240716381886
0.687,0.029961325816444444
0.6875,-0.0010450809744749195
0.6880000000000001,-0.03068447812392557
0.6885,-0.029355520884001254
0.6890000000000001,0.012613114582553858
0.6895,0.07227181493931012
0.6900000000000001,0.1093930059835005
0.6905,0.0975348572894646
0.6910000000000001,0.04418416803967794
0.6915,-0.016090001022619625
0.6920000000000001,-0.04884147189616347
0.6925,-0.044420906145918634
0.6930000000000001,-0.021253782261593142
0.6935,-0.008194978182125025
0.6940000000000001,-0.020283566826325886
0.6945,-0.04391021492063067
0.6950000000000001,-0.044541651160437686
0.6955,0.0026953059423609326
0.6960000000000001,0.08397172530884481
0.6965,0.15133211583043063
0.6970000000000001,0.1622632033580739
0.6975,0.11703278947930906
0.6980000000000001,0.057322360326784325
0.6985,0.02929678403473351
0.6990000000000001,0.046987336947563664
0.6995,0.08653955204612783
0.7000000000000001,0.1106942723541188
0.7005,0.09764235957011161
0.7010000000000001,0.050991797100864794
0.7015,-0.008722423066079581
0.7020000000000001,-0.05624597983724299
0.7025,-0.0715560214515304
0.7030000000000001,-0.050197620270926196
0.7035,-0.007702608886118406
0.704,0.032339265459430694
0.7045,0.05767118717023142
0.705,0.07161471591026694
0.7055,0.07913943088958063
0.706,0.07627405873466298
0.7065,0.056919118522622145
0.707,0.02620116824472412
0.7075,0.0023131121939953796
0.708,0.0027858756072392955
0.7085,0.027392120562864906
0.709,0.05571327518428597
0.7095,0.06544774840469748
0.71,0.05254993312263983
0.7105,0.028516430047480692
0.711,0.0008309039943223597
0.7115,-0.033315951903529935
0.712,-0.07241783060175341
0.7125,-0.1010533612114085
0.713,-0.10340865885036528
0.7135,-0.08297354007649912
0.714,-0.06059503340414023
0.7145,-0.05166668935245555
0.715,-0.053134371477795504
0.7155,-0.057700028386388144
0.716,-0.07010811102336113
0.7165,-0.09435820388904834
0.717,-0.10870391250659003
0.7175,-0.07463478872413908
0.718,0.017703440464033306
0.7185,0.12365238758935128
0.719,0.17780674738783706
0.7195,0.15392417199864616
0.72,0.08573178627935224
0.7205,0.030556756195291364
0.721,0.018195383996615175
0.7215,0.03448557816631913
0.722,0.047017500223827696
0.7225,0.03906750190181055
0.723,0.01778988451111022
0.7235,-0.0023743506612559787
0.724,-0.014731472682982177
0.7245,-0.01812805593619435
0.725,-0.008337760944546671
0.7255,0.01842651013330892
0.726,0.05217626208079423
0.7265,0.07018629616232495
0.727,0.06222659573529884
0.7275,0.04989779567026229
0.728,0.06565529999000867
0.7285,0.10881147358244415
0.729,0.13572109401504756
0.7295,0.10597686405694212
0.73,0.03423928407921435
0.7305,-0.018014098268090327
0.731,-0.009053034657867
0.7315,0.03275054248882793
0.732,0.03760401629962083
0.7325,-0.024766318683199576
0.733,-0.10402511951243944
0.7335,-0.11920158600037314
0.734,-0.04591882804481988
0.7345,0.05683457710404023
0.735,0.10723873827507704
0.7355,0.07866727386214485
0.736,0.015874683437403586
0.7365,-0.016794388495748942
0.737,0.0021667105076511074
0.7375,0.03495060628848463
0.738,0.025849595751614426
0.7385,-0.036545016153226306
0.739,-0.0969814749901795
0.7395,-0.08230493468132229
0.74,0.020235703264907277
0.7405,0.1386775612651121
0.741,0.17933410512788117
0.7415,0.1155642587150821
0.742,0.010829517892277735
0.7425,-0.04552909639520667
0.743,-0.02134547747529756
0.7435,0.037452533235924276
0.744,0.05903370915594312
0.7445,0.012874342064318204
0.745,-0.0682691704951998
0.7455,-0.12228838185708646
0.746,-0.11142196034452506
0.7465,-0.05056157197354026
0.747,0.00838321434923704
0.7475,0.019410116657064894
0.748,-0.02209772639349466
0.7485,-0.07815576522543405
0.749,-0.10106566229459524
0.7495,-0.073357124821222
0.75,-0.020225780407327247
0.7505000000000001,0.01886882041381849
0.751,0.03141139521523973
0.7515000000000001,0.0383934787880793
0.752,0.05889336301928927
0.7525000000000001,0.08152541777391181
0.753,0.08184045339778201
0.7535000000000001,0.05929921007489429
0.754,0.04101828961777281
0.7545000000000001,0.048115229835870674
0.755,0.0719134026558347
0.7555000000000001,0.09002355041019332
0.756,0.09539767645134212
0.7565000000000001,0.09730084644834353
0.757,0.09780391361233938
0.7575000000000001,0.08247101788896423
0.758,0.04101113054369185
0.7585000000000001,-0.01021830004916395
0.759,-0.03587557373529228
0.7595000000000001,-0.013733037225488774
0.76,0.04288313308227377
0.7605000000000001,0.09325401635120427
0.761,0.09858081129665386
0.7615000000000001,0.050425913402773206
0.762,-0.02093157377095396
0.7625000000000001,-0.068690744235245
0.763,-0.06873190298934523
0.7635000000000001,-0.03857469160001915
0.764,-0.015351702214634957
0.7645000000000001,-0.01841410745430251
0.765,-0.03676952925418684
0.7655000000000001,-0.046315606816442575
0.766,-0.030464824610900148
0.7665000000000001,0.01245644947697253
0.767,0.07043697635300293
0.7675000000000001,0.12213961243671204
0.768,0.1451168092546626
0.7685,0.12649609532828912
0.769,0.07124736041956892
0.7695,0.0026548241699408098
0.77,-0.04838725020962378
0.7705,-0.06133064528093402
0.771,-0.039340257789677105
0.7715,-0.00726482885196447
0.772,0.005807307148667902
0.7725,-0.013119388330844396
0.773,-0.05337208159231938
0.7735,-0.09091197705310053
0.774,-0.10702181428287857
0.7745,-0.09943579464432052
0.775,-0.07730059138785346
0.7755,-0.048853311654165205
0.776,-0.018684708590230664
0.7765,0.005753282730779617
0.777,0.016296711076534024
0.7775,0.01626779622706709
0.778,0.019190359511987103
0.7785,0.02849950514934494
0.779,0.029579734604733166
0.7795,0.01234756181990493
0.78,-0.006987297530997151
0.7805,-0.00048794630916707514
0.781,0.03764015258206476
0.7815,0.08390121869890048
0.782,0.11264797777380203
0.7825,0.1178026422612663
0.783,0.10366646331583008
0.7835,0.06983066541071503
0.784,0.019924949842137562
0.7845,-0.023319593172287358
0.785,-0.03057302121701442
0.7855,0.004241089818792864
0.786,0.055861787565658086
0.7865,0.08892728812329133
0.787,0.08127540033910138
0.7875,0.0328094289665453
0.788,-0.03418012809230085
0.7885,-0.08171099995531697
0.789,-0.0767729216173552
0.7895,-0.01719654126581046
0.79,0.06224734616350111
0.7905,0.11370539373178518
0.791,0.11060646168459398
0.7915,0.06370028484908144
0.792,0.00739785314369917
0.7925,-0.029097999862682883
0.793,-0.039144784365167704
0.7935,-0.03149411954139692
0.794,-0.01282383082715213
0.7945,0.016882063435045343
0.795,0.053547976584276305
0.7955,0.0818766504860197
0.796,0.08408973914282235
0.7965,0.05382067735944327
0.797,0.0004484016480479011
0.7975,-0.05500606542066457
0.798,-0.08689295979742437
0.7985,-0.07741609661568977
0.799,-0.03084539930117494
0.7995,0.026329384504601483
0.8,0.06381751839022178
0.8005,0.06747551077191345
0.801,0.0443058542290512
0.8015,0.01347345992891634
0.802,-0.006563883285040184
0.8025,-0.007211290052559532
0.803,0.007873697696495513
0.8035,0.026842452178405918
0.804,0.0384573763391701
0.8045,0.04156819413904593
0.805,0.04598251919330905
0.8055,0.059846848602571195
0.806,0.07634464601009465
0.8065,0.07770594090686267
0.807,0.05316403749444282
0.8075,0.009037741596481842
0.808,-0.038300644262785226
0.8085,-0.0729254886375827
0.809,-0.08241429278907825
0.8095,-0.06101199839702808
0.81,-0.018468099858572506
0.8105,0.01770502997335452
0.811,0.017215196244465113
0.8115,-0.030972759503656792
0.812,-0.10791521595471676
0.8125,-0.17217504245309043
0.8130000000000001,-0.18143837801095805
0.8135,-0.11988044290719176
0.8140000000000001,-0.015506168802181279
0.8145,0.07200233719736168
0.8150000000000001,0.09321140208539158
0.8155,0.048407222761923226
0.8160000000000001,-0.013644724853093784
0.8165,-0.03900416829904605
0.8170000000000001,-0.012732468339749097
0.8175,0.0364725213899798
0.8180000000000001,0.06900337516691718
0.8185,0.06755844214079959
0.8190000000000001,0.04205853343281289
0.8195,0.011429053198599534
0.8200000000000001,-0.012270944163775761
0.8205,-0.0222764360791823
0.8210000000000001,-0.00812955343493128
0.8215,0.04042663071182438
0.8220000000000001,0.11492990138951086
0.8225,0.17927932307380617
0.8230000000000001,0.1912665871851347
0.8235,0.14022080083755628
0.8240000000000001,0.06206616573604034
0.8245,0.012923103095377883
0.8250000000000001,0.02406088645936925
0.8255,0.07782524764209635
0.8260000000000001,0.12389901055621365
0.8265,0.12090789429439218
0.8270000000000001,0.06723198500908309
0.8275,-0.004091395153391055
0.8280000000000001,-0.05599511768852025
0.8285,-0.07233524940038069
0.8290000000000001,-0.06090918256110078
0.8295,-0.042133335397379276
0.8300000000000001,-0.0345484102249643
0.8305,-0.04126880601043677
0.8310000000000001,-0.04514404002910615
0.8315,-0.024049429081038708
0.8320000000000001,0.022356679512966653
0.8325,0.06605674750939002
0.833,0.07711796211818667
0.8335,0.05283154008985637
0.834,0.016409454165875314
0.8345,-0.007296392643011512
0.835,-0.010269672171493369
0.8355,-0.0035178975360622613
0.836,-0.00798154122009809
0.8365,-0.03662644587014181
0.837,-0.07777409671667657
0.8375,-0.10157610061403131
0.838,-0.0907616405077366
0.8385,-0.06037295866204281
0.839,-0.0389166218726895
0.8395,-0.034128646759816375
0.84,-0.02832711369992353
0.8405,-0.007647077897703782
0.841,0.01652228228701786
0.8415,0.02312521088415065
0.842,0.011714599099874804
0.8425,0.006326331818269486
0.843,0.02825586160926554
0.8435,0.07082342324946647
0.844,0.10247789302582015
0.8445,0.09305612812285669
0.845,0.04004578618585254
0.8455,-0.0257735124086051
0.846,-0.061260678867689225
0.8465,-0.044292502531114414
0.847,0.006624044199107958
0.8475,0.044991613406651636
0.848,0.03501708192036216
0.8485,-0.015503373595879902
0.849,-0.06087323894994947
0.8495,-0.058592659743195705
0.85,-0.0052060303398119324
0.8505,0.06461101406704625
0.851,0.10628958830292874
0.8515,0.09419485606813757
0.852,0.03651595039959042
0.8525,-0.028879239174232525
0.853,-0.05764610349690634
0.8535,-0.029215690115069654
0.854,0.036332857777486814
0.8545,0.0904651987645971
0.855,0.09417611271880375
0.8555,0.051567170192294724
0.856,0.00492894636677433
0.8565,-0.004677639281352181
0.857,0.029456654668121435
0.8575,0.08002410286669619
0.858,0.10820071436905924
0.8585,0.08773521718557024
0.859,0.022538051920230017
0.8595,-0.05140912266922465
0.86,-0.08964885594069842
0.8605,-0.07419558490846065
0.861,-0.026882504341747233
0.8615,0.012120739428732388
0.862,0.019065458542911043
0.8625,0.003147265372355483
0.863,-0.00753331939399674
0.8635,0.004120711802286674
0.864,0.026732321428358706
0.8645,0.032871433927146275
0.865,0.009787887742619746
0.8655,-0.02345591744786156
0.866,-0.03125100121802871
0.8665,0.005244817761025928
0.867,0.06724405010735122
0.8675,0.1090505591577055
0.868,0.0951516181853817
0.8685,0.0338699036374134
0.869,-0.027046405191524216
0.8695,-0.04458451862212153
0.87,-0.021250951426497557
0.8705,0.002353929709067143
0.871,-0.004564559269498126
0.8715,-0.03033341038532151
0.872,-0.04115914679065219
0.8725,-0.02621555009801608
0.873,-0.00845668455441122
0.8735,-0.010037574857404318
0.874,-0.02383491255903441
0.8745,-0.029740240020458865
0.875,-0.026304618969636775
0.8755000000000001,-0.029404136054110287
0.876,-0.043571692319641774
0.8765000000000001,-0.05063748467174542
0.877,-0.031434946181366566
0.8775000000000001,0.009353334437539272
0.878,0.04637026958975764
0.8785000000000001,0.05999309337244245
0.879,0.05436512921055511
0.8795000000000001,0.04571390778818182
0.88,0.035806243811991705
0.8805000000000001,0.007515138187510028
0.881,-0.045660416750077266
0.8815000000000001,-0.09401152297085773
0.882,-0.09189413545902318
0.8825000000000001,-0.026220866877533586
0.883,0.06608268223591979
0.8835000000000001,0.13215402654413635
0.884,0.14732703070961511
0.8845000000000001,0.12521161933249683
0.885,0.09421264435108785
0.8855000000000001,0.0701043539928301
0.886,0.047839623617285706
0.8865000000000001,0.014109077159648601
0.887,-0.03402119346106541
0.8875000000000001,-0.08049822238963668
0.888,-0.09881253033732874
0.8885000000000001,-0.07393217457387982
0.889,-0.021170591784491072
0.8895000000000001,0.020656469167538074
0.89,0.023293140812797243
0.8905000000000001,-0.0035871002913475496
0.891,-0.024824226419410688
0.8915000000000001,-0.01860926485729975
0.892,0.00430646728782202
0.8925000000000001,0.020456647186555654
0.893,0.022229971191190214
0.8935000000000001,0.01921153653473444
0.894,0.018553135821952532
0.8945000000000001,0.016540496721796083
0.895,0.00911255625548005
0.8955000000000001,0.00011635886797630411
0.896,-0.0037629833715874823
0.8965,0.0005412133988970703
0.897,0.014099900482906222
0.8975,0.037859655423676614
0.898,0.06557153798992205
0.8985,0.07791458681580879
0.899,0.057253242601348536
0.8995,0.014641070501939498
0.9,-0.009912965013694524
0.9005,0.012518861570654106
0.901,0.06317039734480154
0.9015,0.08973165894745143
0.902,0.05829526860094322
0.9025,-0.01358734227364479
0.903,-0.07584369977079966
0.9035,-0.09297657292780757
0.904,-0.06945073734057768
0.9045,-0.03409409285105942
0.905,-0.010993426127618961
0.9055,-0.00914762865574971
0.906,-0.028491125633825113
0.9065,-0.060721838191440836
0.907,-0.08407985825222077
0.9075,-0.07256834978765551
0.908,-0.021352578365445414
0.9085,0.04227682220907981
0.909,0.0818599038506392
0.9095,0.08302209479293905
0.91,0.057331965407974486
0.9105,0.02337985255812503
0.911,-0.004826982259908897
0.9115,-0.01611141999965427
0.912,-0.004990799012023514
0.9125,0.018555072726767444
0.913,0.0314749686748548
0.9135,0.019251624124182926
0.914,-0.004569552105714605
0.9145,-0.007611655808314328
0.915,0.026243596115144922
0.9155,0.07415145278454263
0.916,0.09505118578415536
0.9165,0.07206749749137777
0.917,0.024986714660793757
0.9175,-0.01810390767400428
0.918,-0.0477536998803024
0.9185,-0.06796963024524295
0.919,-0.07834755721842755
0.9195,-0.07294289714457307
0.92,-0.05127162713125272
0.9205,-0.019588397934663042
0.921,0.018190768526542507
0.9215,0.061158725989595084
0.922,0.0994520138153441
0.9225,0.11085732615832242
0.923,0.080825355253748
0.9235,0.025219175713101574
0.924,-0.018663542004644144
0.9245,-0.03100309347425205
0.925,-0.03236770658083699
0.9255,-0.05705797309586896
0.926,-0.10687022091472421
0.9265,-0.14481522558327983
0.927,-0.13628290349660122
0.9275,-0.08477102001044787
0.928,-0.024366149272685655
0.9285,0.013322559087739933
0.929,0.02234639997889177
0.9295,0.02169757685460888
0.93,0.036969309492796136
0.9305,0.0785013642907564
0.931,0.13135689875210424
0.9315,0.16593817710364517
0.932,0.16218299175090758
0.9325,0.12587191631375377
0.933,0.0814731937799179
0.9335,0.050517549510765605
0.934,0.03787949144938145
0.9345,0.034944044183398665
0.935,0.029775548994525423
0.9355,0.01335667585945877
0.936,-0.016608703924964247
0.9365,-0.04909746866665105
0.937,-0.05894915232697007
0.9375,-0.02608678324132238
0.9380000000000001,0.036862187231894744
0.9385,0.08449603547651816
0.9390000000000001,0.07694653807352778
0.9395,0.018004677203732108
0.9400000000000001,-0.04928592594322269
0.9405,-0.08290004437574988
0.9410000000000001,-0.07485371665100467
0.9415,-0.05001962119044916
0.9420000000000001,-0.03966170828935583
0.9425,-0.054638312896107544
0.9430000000000001,-0.0809291521666627
0.9435,-0.1019211794198869
0.9440000000000001,-0.11912028321327157
0.9445,-0.13972398566113006
0.9450000000000001,-0.14913652569483976
0.9455,-0.116637908586437
0.9460000000000001,-0.035369381743545814
0.9465,0.05604809308799829
0.9470000000000001,0.1009649996508419
0.9475,0.07281783247648739
0.9480000000000001,-0.0015192043968459863
0.9485,-0.061037417889972946
0.9490000000000001,-0.057510133162455186
0.9495,0.006737293197534695
0.9500000000000001,0.08380877311259918
0.9505,0.1225999099051831
0.9510000000000001,0.10659695131888426
0.9515,0.05847105836753461
0.9520000000000001,0.019459859802664112
0.9525,0.02060328082109383
0.9530000000000001,0.05865729807532445
0.9535,0.09615568499156399
0.9540000000000001,0.09381690875255409
0.9545,0.04704787026487138
0.9550000000000001,-0.011055466622158385
0.9555,-0.04021946370688427
0.9560000000000001,-0.023848693357339613
0.9565,0.02298484375252205
0.9570000000000001,0.06514407090476483
0.9575,0.06855574288230423
0.9580000000000001,0.024100126117089577
0.9585,-0.040535926504082415
0.9590000000000001,-0.07917674129272369
0.9595,-0.0678825796479032
0.96,-0.027839698926982324
0.9605,-0.0008471694216567131
0.961,-0.0014547455593078313
0.9615,-0.0012456813377341568
0.962,0.035164243127960425
0.9625,0.10384619082088402
0.963,0.157517076783913
0.9635,0.14856637284620583
0.964,0.07518857885583762
0.9645,-0.015675476124412578
0.965,-0.07136553826811395
0.9655,-0.07704636974855415
0.966,-0.055745311076921066
0.9665,-0.03447504837610555
0.967,-0.021637160157669165
0.9675,-0.014283142341697634
0.968,-0.013007382316571664
0.9685,-0.022667192627692203
0.969,-0.04297104103532415
0.9695,-0.06348353820200438
0.97,-0.06797627236207453
0.9705,-0.043784848401592344
0.971,0.007867081189313278
0.9715,0.06493839404557943
0.972,0.0910515662102607
0.9725,0.060398689803867325
0.973,-0.01621866240016535
0.9735,-0.09275676666190301
0.974,-0.12107295190425403
0.9745,-0.08645777528292015
0.975,-0.01511333912584351
0.9755,0.04836019047795206
0.976,0.0725671548600395
0.9765,0.05701844587066326
0.977,0.025025829147046236
0.9775,0.0005710518099102703
0.978,-0.008294835340233172
0.9785,-0.006929160532431697
0.979,-0.0032484296223026
0.9795,-0.003340076645487621
0.98,-0.01139218908929504
0.9805,-0.026331701458480253
0.981,-0.04006575433925988
0.9815,-0.04466885721939665
0.982,-0.041059800464040015
0.9825,-0.03626353990753755
0.983,-0.032369905324458506
0.9835,-0.023822646212927307
0.984,-0.008238010061206051
0.9845,0.005743317632731544
0.985,0.008538874679773554
0.9855,0.005943825405109126
0.986,0.01690588802453109
0.9865,0.05139796383718837
0.987,0.09532315860038865
0.9875,0.12107258152076032
0.988,0.10973680075825763
0.9885,0.0622448845560824
0.989,-0.002340412058433553
0.9895,-0.054301838824455814
0.99,-0.06898321164076472
0.9905,-0.04562701410970814
0.991,-0.007837789523138666
0.9915,0.01953205743302187
0.992,0.030637664989634796
0.9925,0.035333089079520416
0.993,0.044159561465793584
0.9935,0.059945543101411314
0.994,0.07576734477826741
0.9945,0.07621267304520353
0.995,0.04788216639856287
0.9955,-0.004882982095581934
0.996,-0.058103970604421844
0.9965,-0.08651562202532753
0.997,-0.0822228742731615
0.9975,-0.054320691924325176
0.998,-0.017180129348210317
0.9985,0.014224621622110804
0.999,0.0233285038549031
0.9995,-0.00029120671005861804
1.0,-0.04659521282801183
1.0005,-0.08471084527820386
1.0010000000000001,-0.08537039961814732
1.0015,-0.04537823886363554
1.002,0.012360577080710665
1.0025,0.06026308558491898
1.0030000000000001,0.08208436461402714
1.0035,0.07132153704094941
1.004,0.02788491937237031
1.0045,-0.03333164804198596
1.0050000000000001,-0.07630219883499688
1.0055,-0.06282976345775383
1.006,0.010546260265973342
1.0065,0.09698747204195181
1.0070000000000001,0.13175876415967475
1.0075,0.08616450919886706
1.008,-0.011965890148665703
1.0085,-0.10661071177939338
1.0090000000000001,-0.15153412256542348
1.0095,-0.12618057461457374
1.01,-0.04097292524252168
1.0105,0.05736958858900326
1.0110000000000001,0.10250749737210108
1.0115,0.05690687893975724
1.012,-0.049799023732681004
1.0125,-0.13994924845315995
1.0130000000000001,-0.15064603862703638
1.0135,-0.07932606267644822
1.014,0.024277909519043135
1.0145,0.10173969141282085
1.0150000000000001,0.12434310654262938
1.0155,0.10109529849240577
1.016,0.059332276631814986
1.0165,0.02011649038155779
1.0170000000000001,-0.011505956884997729
1.0175,-0.03979414666562529
1.018,-0.06653036527188677
1.0185,-0.08368883974538058
1.0190000000000001,-0.07554942676288096
1.0195,-0.03209828830485598
1.02,0.03520182362465975
1.0205,0.09356088325327687
1.0210000000000001,0.1105652996202121
1.0215,0.07902887535274053
1.022,0.02301678749521313
1.0225,-0.018587006090492665
1.0230000000000001,-0.0187467821542116
1.0235,0.01769360037471901
1.024,0.055534160658024995
1.0245,0.05587793527242198
1.025,0.010883898665335338
1.0255,-0.043924990260546776
1.026,-0.057065365044939205
1.0265,-0.008188618034528439
1.027,0.0706042384257386
1.0275,0.12217088263449805
1.028,0.11203314392375122
1.0285,0.050154556155925234
1.029,-0.02555072133933973
1.0295,-0.08046444065947474
1.03,-0.1033699995332891
1.0305,-0.10446229178743022
1.031,-0.09631243670721255
1.0315,-0.07769707172945686
1.032,-0.03860212095655924
1.0325,0.01956738541560723
1.033,0.07324886644212136
1.0335,0.0889192086921203
1.034,0.04694222701358587
1.0345,-0.04227359854545735
1.035,-0.13917545480750795
1.0355,-0.19314311742598145
1.036,-0.1716966363838175
1.0365,-0.08382683984330365
1.037,0.02334655208597445
1.0375,0.09611453412401608
1.038,0.1089721667202414
1.0385,0.07509030272440263
1.039,0.02834690976750158
1.0395,-0.004083782805234591
1.04,-0.016203009421321343
1.0405,-0.016865082421921557
1.041,-0.014317932141775161
1.0415,-0.01018831717412403
1.042,-0.006332709072549833
1.0425,-0.008395005594365583
1.043,-0.015507708881332091
1.0435,-0.011957162413387862
1.044,0.019131785951046826
1.0445,0.0727445928130735
1.045,0.12126165405527348
1.0455,0.1378993491626856
1.046,0.11493141293069722
1.0465,0.061958655741844386
1.047,-0.003431900162407143
1.0475,-0.06230070042433998
1.048,-0.09981149480938073
1.0485,-0.10925313293789117
1.049,-0.09290114694330658
1.0495,-0.062250249569358894
1.05,-0.0358003719929575
1.0505,-0.027872926217523377
1.051,-0.03462716992352373
1.0515,-0.03614176535397356
1.052,-0.01844931824126856
1.0525,0.008047411748850673
1.053,0.01720785200747501
1.0535,-0.004862047367054572
1.054,-0.04301850071567972
1.0545,-0.06585269812429986
1.055,-0.05509087144811842
1.0555,-0.021080876237431975
1.056,0.012179621154519378
1.0565,0.03445865427739436
1.057,0.054566902247956406
1.0575,0.07752938830379687
1.058,0.08784727464509674
1.0585,0.0655320038656415
1.059,0.014944259351500604
1.0595,-0.03190393895297796
1.06,-0.043130060554891214
1.0605,-0.014548600655944492
1.061,0.030426784360129404
1.0615,0.06258771113117355
1.062,0.0664262332350068
1.0625,0.04533495173662696
1.063,0.01499748917743635
1.0635000000000001,-0.009252231020292994
1.064,-0.02143396363684881
1.0645,-0.02190260679484337
1.065,-0.01010200035826624
1.0655000000000001,0.01186184538379083
1.066,0.030112209877749915
1.0665,0.02602455692404444
1.067,-0.00030340117464342994
1.0675000000000001,-0.021992053686502238
1.068,-0.013541802887398736
1.0685,0.014466330661152323
1.069,0.022840303747235675
1.0695000000000001,-0.009723787106095364
1.07,-0.05988430831139535
1.0705,-0.08619361098128915
1.071,-0.07198666788728061
1.0715000000000001,-0.03509040712880109
1.072,-0.005880889002696323
1.0725,-0.00527339575586777
1.073,-0.03512591291745039
1.0735000000000001,-0.07584578112862973
1.074,-0.0940535963877925
1.0745,-0.06562605857073316
1.075,0.0003032429117886254
1.0755000000000001,0.06325667598191288
1.076,0.08457662819087652
1.0765,0.06145601371975325
1.077,0.026229056947382354
1.0775000000000001,0.011738210712528976
1.078,0.01971538645013307
1.0785,0.023158539551786296
1.079,-0.003055890315277519
1.0795000000000001,-0.05428328245227934
1.08,-0.09575513100366942
1.0805,-0.09038691646546194
1.081,-0.033403591602764966
1.0815000000000001,0.03539946902265844
1.082,0.057694224546733563
1.0825,0.005263395054444344
1.083,-0.09045222221928954
1.0835000000000001,-0.15897488943604773
1.084,-0.14759093607954626
1.0845,-0.06455240657987861
1.085,0.030262302514779522
1.0855000000000001,0.07818936951573013
1.086,0.06839656424469616
1.0865,0.035328388491601706
1.087,0.015666280881228067
1.0875000000000001,0.015506547564067757
1.088,0.01958387942442147
1.0885,0.01927809819831698
1.089,0.01980696916710921
1.0895,0.02545543399493411
1.09,0.03134732433637391
1.0905,0.03220798220448277
1.091,0.030957211874631553
1.0915,0.03425811247016899
1.092,0.042929654323422356
1.0925,0.05025043294870936
1.093,0.049657120947056495
1.0935,0.04180004661731897
1.094,0.03161068121929995
1.0945,0.020169183841922414
1.095,0.004731467584920232
1.0955,-0.012912812213159468
1.096,-0.024213792777899985
1.0965,-0.02335616239453375
1.097,-0.01601733755423708
1.0975,-0.01496669007018579
1.098,-0.027036691708601603
1.0985,-0.046804899488980575
1.099,-0.06322429771711517
1.0995,-0.0690238106857122
1.1,-0.061892191636723305
1.1005,-0.0415100704239585
1.101,-0.01251740847686894
1.1015,0.01077328314242345
1.102,0.012005706739358666
1.1025,-0.010055726388816282
1.103,-0.037441216009259384
1.1035,-0.05077800107485106
1.104,-0.04752902417172773
1.1045,-0.039440149194135965
1.105,-0.03625126620318253
1.1055,-0.036490670854697434
1.106,-0.03295554234283434
1.1065,-0.023386065313574907
1.107,-0.013427374288905312
1.1075,-0.009251472979275718
1.108,-0.009901016905126698
1.1085,-0.009041255151167635
1.109,-0.002519134401049517
1.1095,0.00830288449259483
1.11,0.019043274679688894
1.1105,0.02507252594745046
1.111,0.022932025890985912
1.1115,0.01280382166030709
1.112,0.0002419123878361091
1.1125,-0.007764849600840698
1.113,-0.009720368476913505
1.1135,-0.009170165162999037
1.114,-0.005548517709536765
1.1145,0.009632870187969936
1.115,0.041645545210754274
1.1155,0.07802048441910257
1.116,0.09078947369127342
1.1165,0.05924943627416315
1.117,-0.0068473400687175875
1.1175,-0.06911668846859444
1.118,-0.09020990868785951
1.1185,-0.06467175942029843
1.119,-0.021516689337613977
1.1195,0.002684024977007581
1.12,-0.006019311221576755
1.1205,-0.030736756083891363
1.121,-0.0401879263818072
1.1215,-0.014307567622830374
1.122,0.03887267963989742
1.1225,0.08685100331721284
1.123,0.09692802132896883
1.1235,0.06283370866560131
1.124,0.008389338431088935
1.1245,-0.03464103548173636
1.125,-0.04976519235798453
1.1255,-0.03999969548029185
1.1260000000000001,-0.01834819977092699
1.1265,0.0014744256669043856
1.127,0.009647484668698754
1.1275,0.0026991362166467487
1.1280000000000001,-0.01558291935436128
1.1285,-0.037346855799677676
1.129,-0.05661826920347533
1.1295,-0.07014062267338014
1.1300000000000001,-0.07203045687979757
1.1305,-0.0541547941681775
1.131,-0.017033281895133152
1.1315,0.022868266057071953
1.1320000000000001,0.04184122258180243
1.1325,0.026923283586074376
1.133,-0.013119241534071811
1.1335,-0.05374263902081364
1.1340000000000001,-0.07279888676965107
1.1345,-0.06460245481995693
1.135,-0.0390428283136803
1.1355,-0.011836961296322526
1.1360000000000001,0.003408445126022553
1.1365,0.0008735803068486443
1.137,-0.012225626411358603
1.1375,-0.018679050373337863
1.1380000000000001,-0.006944697220912448
1.1385,0.016794628991684497
1.139,0.03730109866895402
1.1395,0.04749690760147814
1.1400000000000001,0.04934056105983307
1.1405,0.04083604935133887
1.141,0.014450733776499367
1.1415,-0.026098639465046168
1.1420000000000001,-0.055482727744611625
1.1425,-0.04638938497642684
1.143,-0.004864787256951639
1.1435,0.02294871557092288
1.1440000000000001,-0.005686537772349163
1.1445,-0.0765833036055121
1.145,-0.12211680131341592
1.1455,-0.09101144789300619
1.1460000000000001,-0.009355171510962438
1.1465,0.04253850122119358
1.147,0.015590648357531541
1.1475,-0.05805571518132262
1.1480000000000001,-0.10420058671389637
1.1485,-0.0825656705373477
1.149,-0.015090500468889285
1.1495,0.04884931473181661
1.1500000000000001,0.07739042830442683
1.1505,0.06763615606528543
1.151,0.03129855965884468
1.1515,-0.015658840020797177
1.1520000000000001,-0.0510981292636255
1.1525,-0.04977560669203558
1.153,-0.0020140981779524156
1.1535,0.07043262752113534
1.154,0.12640478778252145
1.1545,0.1382530625492107
1.155,0.11065590720435123
1.1555,0.06743351316766814
1.156,0.027340452057810646
1.1565,-0.002604144512932744
1.157,-0.017602472158083457
1.1575,-0.011778133552077519
1.158,0.01178274334914891
1.1585,0.03359809730734226
1.159,0.027242520525179184
1.1595,-0.018616290046158362
1.16,-0.08423791751123179
1.1605,-0.12802274499769625
1.161,-0.1206583127850493
1.1615,-0.07513623827507733
1.162,-0.039955916973921465
1.1625,-0.05685072467530322
1.163,-0.12006508633034804
1.1635,-0.17479323435618452
1.164,-0.159998902940891
1.1645,-0.061838483389863655
1.165,0.06992434381383131
1.1655,0.1592886394714453
1.166,0.16062188592148652
1.1665,0.08456588282999657
1.167,-0.018987910567988552
1.1675,-0.0936241055766874
1.168,-0.10212573509662443
1.1685,-0.04473874708272218
1.169,0.034893760355484305
1.1695,0.07391841973294307
1.17,0.040294651723400646
1.1705,-0.03463933438524868
1.171,-0.08065465657833347
1.1715,-0.05410597647335698
1.172,0.019375377374587832
1.1725,0.07041914166568541
1.173,0.05397813282139497
1.1735,-0.011444454400626285
1.174,-0.06976962399791822
1.1745,-0.08214383798918896
1.175,-0.052284199021223665
1.1755,-0.008926063167557915
1.176,0.02277657053832343
1.1765,0.031387251947048084
1.177,0.01290183313378209
1.1775,-0.03103801774980689
1.178,-0.08349393384888246
1.1785,-0.1114471000201153
1.179,-0.09060733517127144
1.1795,-0.033359597325700915
1.18,0.018852615085702497
1.1805,0.035665493756626185
1.181,0.023061744474207363
1.1815,0.006163952156542359
1.182,-0.0015661467130673084
1.1825,-0.002602241890593767
1.183,0.0015013523734973776
1.1835,0.01423895334330572
1.184,0.031045855632938373
1.1845,0.03676127270047451
1.185,0.02238250927871584
1.1855,-0.004003484471375114
1.186,-0.02789328979728005
1.1865,-0.04306417573448869
1.187,-0.049822959736805755
1.1875,-0.04388602838962651
1.188,-0.0165509045734813
1.1885000000000001,0.03121918460340492
1.189,0.07941590573631706
1.1895,0.0993331773202984
1.19,0.07711264808196557
1.1905000000000001,0.028057924017583072
1.191,-0.015411420850525385
1.1915,-0.0327087351807331
1.192,-0.029505940249922327
1.1925000000000001,-0.022300183331185205
1.193,-0.01640449138725808
1.1935,-0.005829454903791403
1.194,0.011025986259933694
1.1945000000000001,0.024281515430486122
1.195,0.019701535829659226
1.1955,-0.010466765871118272
1.196,-0.059340699296278096
1.1965000000000001,-0.10460763999090955
1.197,-0.12130511620266411
1.1975,-0.1018641667218018
1.198,-0.06307215075314868
1.1985000000000001,-0.029981528880947923
1.199,-0.01397030495554993
1.1995,-0.009259736685881904
1.2,-0.00663315998879109
1.2005000000000001,-0.0025348142200827904
1.201,0.003953098761444328
1.2015,0.013719269053271069
1.202,0.024716672346940218
1.2025000000000001,0.031678764134641546
1.203,0.02934143041040211
1.2035,0.013205328389565826
1.204,-0.01844274388515311
1.2045000000000001,-0.05731948501162716
1.205,-0.084213790210406
1.2055,-0.08264538970473978
1.206,-0.05297068078408913
1.2065000000000001,-0.010661357953293708
1.207,0.026053332422075907
1.2075,0.04431052122209334
1.208,0.03750362080987764
1.2085000000000001,0.00682719604720381
1.209,-0.03395716068367943
1.2095,-0.060656849593693246
1.21,-0.05576249784469487
1.2105000000000001,-0.02673315779202575
1.211,-0.001023191669030029
1.2115,0.0010280642031011596
1.212,-0.015440187486097979
1.2125000000000001,-0.030091265265110106
1.213,-0.03084433094484219
1.2135,-0.023604138140279944
1.214,-0.021071216703564127
1.2145000000000001,-0.02597446643875098
1.215,-0.027884310114680365
1.2155,-0.01607229298485217
1.216,0.007537955996520167
1.2165,0.029311032028861386
1.217,0.03523869603998366
1.2175,0.02014388148962831
1.218,-0.0105753250209152
1.2185,-0.043268663745911116
1.219,-0.06078571862490703
1.2195,-0.05109468237681696
1.22,-0.015445531665511889
1.2205,0.03074256824909964
1.221,0.06357649670569432
1.2215,0.060565587413616465
1.222,0.015650580476526683
1.2225,-0.04857791991649307
1.223,-0.08843502247677981
1.2235,-0.06871561512335976
1.224,0.0077113669890087055
1.2245,0.09556071425361191
1.225,0.13447194160264136
1.2255,0.09274716227493841
1.226,-0.0020571639711094896
1.2265,-0.07637226219758901
1.227,-0.07032351582877336
1.2275,0.005290236008217326
1.228,0.07769182544808606
1.2285,0.08322145942326264
1.229,0.024507450767195148
1.2295,-0.04330052373968686
1.23,-0.07110236164350238
1.2305,-0.05480158393090418
1.231,-0.027038547327199874
1.2315,-0.023513958648974317
1.232,-0.05707483344539404
1.2325,-0.11371857054152872
1.233,-0.16480131425167388
1.2335,-0.18313674606977098
1.234,-0.15418102719101157
1.2345,-0.08118814927591311
1.235,0.011412083335308102
1.2355,0.0794060109187842
1.236,0.07950172772971041
1.2365,0.008029315762817839
1.237,-0.0810051090586607
1.2375,-0.11407278167957878
1.238,-0.06568034235150717
1.2385,0.01653854181856336
1.239,0.06081400852490323
1.2395,0.0427419275538116
1.24,0.0023616358512475576
1.2405,-0.007372314074183955
1.241,0.020584041265426897
1.2415,0.04554070744833208
1.242,0.03137069857155177
1.2425,-0.009408083834534476
1.243,-0.029973492970907494
1.2435,-0.004473712905472762
1.244,0.04043229778752888
1.2445,0.054737135147813934
1.245,0.020033129436299903
1.2455,-0.03304386429295559
1.246,-0.058373621346822634
1.2465,-0.03543164259695404
1.247,0.01833372287835127
1.2475,0.06095167442180505
1.248,0.052610135989939445
1.2485,-0.01244702634812702
1.249,-0.0913191528230464
1.2495,-0.12026127255982472
1.25,-0.06932067525373939
1.2505,0.029558805569129334
1.2510000000000001,0.1105269711636159
1.2515,0.12774021713543496
1.252,0.0834751144438155
1.2525,0.013313631957277122
1.2530000000000001,-0.04752110352036032
1.2535,-0.0850653885796618
1.254,-0.10288764293652682
1.2545,-0.10509941258518966
1.2550000000000001,-0.08791614453637835
1.2555,-0.05026890936494362
1.256,-0.00827064929550043
1.2565,0.010944112684596762
1.2570000000000001,-0.004703073757184888
1.2575,-0.036138944174373584
1.258,-0.049326782718317363
1.2585,-0.029828123158502706
1.2590000000000001,0.0003889007235229579
1.2595,0.00503919812170401
1.26,-0.02456894298860733
1.2605,-0.054771721033462104
1.2610000000000001,-0.044505337838634085
1.2615,0.007834593576166386
1.262,0.06065183764858821
1.2625,0.06938530165768818
1.2630000000000001,0.02380784993717395
1.2635,-0.047539635309484886
1.264,-0.09821728221029634
1.2645,-0.09368410785546724
1.2650000000000001,-0.03667680098969371
1.2655,0.029708221220547056
1.266,0.05234866060104723
1.2665,0.01345577859215302
1.2670000000000001,-0.050477126804039166
1.2675,-0.07899794870728485
1.268,-0.0428563020502731
1.2685,0.02660356350267054
1.2690000000000001,0.06386292109169536
1.2695,0.031051922317210497
1.27,-0.04432216556464043
1.2705,-0.09724442415744104
1.2710000000000001,-0.09017476844699576
1.2715,-0.04478589875818994
1.272,-0.01192454366229579
1.2725,-0.02046339107041402
1.2730000000000001,-0.05667909690995561
1.2735,-0.08293453598097986
1.274,-0.0707336708845617
1.2745,-0.022125509530099202
1.2750000000000001,0.0331647083931756
1.2755,0.060275901132511835
1.276,0.04282970513410755
1.2765,-0.007874574026157315
1.2770000000000001,-0.05947471972729418
1.2775,-0.07679199400302203
1.278,-0.0460431865784687
1.2785,0.011169719053305252
1.2790000000000001,0.05292312317955041
1.2795,0.05357958222377414
1.28,0.025053979832400826
1.2805,-0.00045543724356006225
1.281,-0.0038059612470886317
1.2815,0.009606696673763269
1.282,0.024766332393633385
1.2825,0.03279897457804146
1.283,0.032369157017121605
1.2835,0.02455530087901865
1.284,0.010600585551715096
1.2845,-0.008046166886198663
1.285,-0.028640154260263517
1.2855,-0.043751025777786376
1.286,-0.040128779759255925
1.2865,-0.007991082060083308
1.287,0.04341657993428827
1.2875,0.08388496715487433
1.288,0.0851628459629564
1.2885,0.0484123112891781
1.289,0.0037076948029421287
1.2895,-0.020056696014885047
1.29,-0.02182225345801133
1.2905,-0.025386542076334895
1.291,-0.05365941852137985
1.2915,-0.10529207334431057
1.292,-0.1533102812861513
1.2925,-0.1676296621875976
1.293,-0.14265984281119884
1.2935,-0.10295127051596444
1.294,-0.07856795359089261
1.2945,-0.07524872937324192
1.295,-0.07374826230201609
1.2955,-0.05834802415498284
1.296,-0.036684637388194434
1.2965,-0.02653398432062501
1.297,-0.031208547546412557
1.2975,-0.036238828886045016
1.298,-0.027405783792024494
1.2985,-0.00603916939935984
1.299,0.01372017346893513
1.2995,0.020583512064838987
1.3,0.018114658318528213
1.3005,0.01949907094326386
1.301,0.029834285709562713
1.3015,0.03856331815860793
1.302,0.034222093630907835
1.3025,0.022710234571151566
1.303,0.023229797037892234
1.3035,0.044295240494268015
1.304,0.06798247287490582
1.3045,0.06388247212505963
1.305,0.0217365963930046
1.3055,-0.033743114069672585
1.306,-0.06644316131152608
1.3065,-0.06497303445286617
1.307,-0.04854313231235325
1.3075,-0.03877782026429242
1.308,-0.03520964526383361
1.3085,-0.021026541152300255
1.309,0.014600388101632592
1.3095,0.0633266561134237
1.31,0.10065618637394899
1.3105,0.09935965913728155
1.311,0.04700223750789138
1.3115,-0.0413960259493363
1.312,-0.12630384037495593
1.3125,-0.16510944027133193
1.313,-0.1403323440418513
1.3135000000000001,-0.07294255773618026
1.314,-0.007922205199295445
1.3145,0.01718547456247648
1.315,-0.0037965968956766944
1.3155000000000001,-0.046153917240189996
1.316,-0.07632459683423745
1.3165,-0.07539650914682275
1.317,-0.045347114582733515
1.3175000000000001,0.0004762911626270479
1.318,0.047856501225781764
1.3185,0.08452577192336568
1.319,0.09711444019341854
1.3195000000000001,0.07098974640515908
1.32,0.0022772584604054645
1.3205,-0.08542052766457521
1.321,-0.14508574739769645
1.3215000000000001,-0.13994963556611087
1.322,-0.0763388382037326
1.3225,0.0015001068257516192
1.323,0.05065959416743525
1.3235000000000001,0.061116475949513936
1.324,0.05113080841994996
1.3245,0.040299814910812345
1.325,0.030652571068017012
1.3255000000000001,0.00970438127875629
1.326,-0.03084254359990089
1.3265,-0.07876483190094352
1.327,-0.10626640672554552
1.3275000000000001,-0.0956985173389523
1.328,-0.058383956333859524
1.3285,-0.022293798781556504
1.329,-0.0024130607021354677
1.3295000000000001,0.009763694917691657
1.33,0.026724621380159064
1.3305,0.04327351391906037
1.331,0.040478972109060526
1.3315000000000001,0.008067847030282044
1.332,-0.04182807216103176
1.3325,-0.08155343196437098
1.333,-0.08728883489860312
1.3335000000000001,-0.057971963848056
1.334,-0.020883164749334063
1.3345,-0.013672343789770452
1.335,-0.05032584843034714
1.3355000000000001,-0.1027108509766469
1.336,-0.12442851164666828
1.3365,-0.09810509003546401
1.337,-0.05251522315427533
1.3375000000000001,-0.02721139332458513
1.338,-0.026751590529321186
1.3385,-0.01902520739205251
1.339,0.022390638280767067
1.3395000000000001,0.08255507208596954
1.34,0.11674595622039904
1.3405,0.09585749538886763
1.341,0.03563684788371298
1.3415000000000001,-0.01905063476064863
1.342,-0.03327901611570558
1.3425,-0.00555973441507792
1.343,0.036271943203850826
1.3435000000000001,0.05397373804316563
1.344,0.021878161951524058
1.3445,-0.051880865721137086
1.345,-0.12248012553138023
1.3455,-0.14008405315930836
1.346,-0.09526075556946907
1.3465,-0.026980879590460735
1.347,0.02001327108700835
1.3475,0.03558813398334896
1.348,0.03599858928620797
1.3485,0.03214758396665396
1.349,0.023848564457036845
1.3495,0.016339380362689386
1.35,0.019739742308442807
1.3505,0.029818522721958837
1.351,0.027493919613051837
1.3515,0.005133047732906351
1.352,-0.019914659660171613
1.3525,-0.027839037779286323
1.353,-0.022781272067133908
1.3535,-0.025216694799509415
1.354,-0.0431363190145087
1.3545,-0.06294295190417944
1.355,-0.06994590637036661
1.3555,-0.06781431012432224
1.356,-0.06996705735946925
1.3565,-0.07554308365932598
1.357,-0.06533635213877897
1.3575,-0.026700060343149198
1.358,0.02448134684599221
1.3585,0.054539727671858995
1.359,0.04420190789918473
1.3595,0.007510135762008523
1.36,-0.019687735486920863
1.3605,-0.010260554576752538
1.361,0.029319932212731235
1.3615,0.06100857103596043
1.362,0.046645941357023
1.3625,-0.016051955433369812
1.363,-0.08812162731292228
1.3635,-0.12395265868023124
1.364,-0.11383048836567654
1.3645,-0.09050374016202081
1.365,-0.0922492968860004
1.3655,-0.12253659305897649
1.366,-0.14921957845073766
1.3665,-0.13970355222280795
1.367,-0.09015158409202466
1.3675,-0.021622450526003045
1.368,0.0415482677264696
1.3685,0.08289264541868106
1.369,0.09209006884674528
1.3695,0.06652535455849765
1.37,0.017758507618143987
1.3705,-0.030115634814689332
1.371,-0.05224805388336917
1.3715,-0.035058617802548236
1.372,0.0163552176876482
1.3725,0.07701669824594172
1.373,0.11322470435540781
1.3735,0.10490261162033884
1.374,0.0601570987153403
1.3745,0.005480096485972184
1.375,-0.03705481540506034
1.3755,-0.06074931506270094
1.3760000000000001,-0.0689861650563562
1.3765,-0.06843511383567864
1.377,-0.06785928840530558
1.3775,-0.07596919762009903
1.3780000000000001,-0.09281650136996338
1.3785,-0.10133805272439067
1.379,-0.07520658626265572
1.3795,-0.007241509018198786
1.3800000000000001,0.06894883912643497
1.3805,0.09899636008780349
1.381,0.0601665398531343
1.3815,-0.01104106140170881
1.3820000000000001,-0.0545973794788287
1.3825,-0.049874591181424004
1.383,-0.03154518968789248
1.3835,-0.03913132167199422
1.3840000000000001,-0.06434687771389584
1.3845,-0.06303585144871698
1.385,-0.015192057844991119
1.3855,0.04402198328932445
1.3860000000000001,0.06124439603888441
1.3865,0.023989229305515274
1.387,-0.02909818613741674
1.3875,-0.054200416046366585
1.3880000000000001,-0.043951988530520604
1.3885,-0.019518246878692202
1.389,0.00317342117156846
1.3895,0.02541330854929587
1.3900000000000001,0.04927647236475104
1.3905,0.06255090125661378
1.391,0.045592786724473915
1.3915,-0.007188781077971344
1.3920000000000001,-0.07339874159373848
1.3925,-0.11328902738564214
1.393,-0.10020172975531605
1.3935,-0.04510614605656811
1.3940000000000001,0.007984598915775503
1.3945,0.0146773787623221
1.395,-0.03381745272659915
1.3955,-0.10175910806221916
1.3960000000000001,-0.13815974475434045
1.3965,-0.12116957595199637
1.397,-0.07627159214469185
1.3975,-0.048691478267013644
1.3980000000000001,-0.05602139183428136
1.3985,-0.0709669907102667
1.399,-0.054451200874381864
1.3995,-0.0014539587203114537
1.4000000000000001,0.053846905818089236
1.4005,0.0760348917735694
1.401,0.061186336541906416
1.4015,0.031569960392862195
1.4020000000000001,0.010130402359494951
1.4025,0.00645025769406439
1.403,0.018735107091147528
1.4035,0.03815976029057433
1.4040000000000001,0.05088344995469072
1.4045,0.04424054892410609
1.405,0.018202761415060394
1.4055,-0.01062195137508255
1.4060000000000001,-0.02390116484268355
1.4065,-0.022142318639603142
1.407,-0.022921728220497352
1.4075,-0.03610222759234162
1.408,-0.050341533358245864
1.4085,-0.05106893594038418
1.409,-0.04358275058199458
1.4095,-0.04599926341767556
1.41,-0.06074642291487925
1.4105,-0.06591467972169432
1.411,-0.04152251283252183
1.4115,0.0013012532212488132
1.412,0.025251948511499443
1.4125,0.003597223902596784
1.413,-0.04983511192655026
1.4135,-0.0911924933294816
1.414,-0.08933447258695135
1.4145,-0.05641774804832274
1.415,-0.03335987879431789
1.4155,-0.04585666276091464
1.416,-0.07886678527354672
1.4165,-0.09584936489278459
1.417,-0.077191077270743
1.4175,-0.033065994029369765
1.418,0.017294171843606248
1.4185,0.06649252864654154
1.419,0.1143965231147378
1.4195,0.15192188836671547
1.42,0.16058090826301932
1.4205,0.1285360483581372
1.421,0.06163331768792092
1.4215,-0.01885221982625757
1.422,-0.08230348561474216
1.4225,-0.09832774672647268
1.423,-0.0575063537064151
1.4235,0.009817430170825833
1.424,0.04639715681198616
1.4245,0.014809311769397955
1.425,-0.06526159337864235
1.4255,-0.13291035868729234
1.426,-0.14320995868816502
1.4265,-0.10728535078379568
1.427,-0.07575130431099177
1.4275,-0.08573998286666357
1.428,-0.12548182946948355
1.4285,-0.14864123144705932
1.429,-0.12144898916241778
1.4295,-0.05647180909020292
1.43,-0.0009443877985783923
1.4305,0.008689779680058393
1.431,-0.01968469234816575
1.4315,-0.046383695341901024
1.432,-0.0432308328532182
1.4325,-0.0190318341710475
1.433,-0.0012949586642582455
1.4335,-0.0006324649777664957
1.434,-0.002437359630784679
1.4345,0.007949166764708387
1.435,0.02482332131555042
1.4355,0.035254012431015724
1.436,0.04449983076191895
1.4365,0.07270646143865758
1.437,0.12153297286426003
1.4375,0.1553499420602692
1.438,0.13029030524405805
1.4385000000000001,0.04448078878697126
1.439,-0.050328897245539406
1.4395,-0.09435577227149425
1.44,-0.07446084854077131
1.4405000000000001,-0.03007341562373162
1.441,-0.008112814478809696
1.4415,-0.01714660396213646
1.442,-0.025655578985075894
1.4425000000000001,-0.00135592098847938
1.443,0.04986636301007932
1.4435,0.08498101964554268
1.444,0.0660823253894999
1.4445000000000001,0.001354096096417146
1.445,-0.06101520215976945
1.4455,-0.08159163817095041
1.446,-0.06757506380655778
1.4465000000000001,-0.05886235404618341
1.447,-0.08091892592152163
1.4475,-0.11752911197362517
1.448,-0.12963277320670044
1.4485000000000001,-0.09592651535331395
1.449,-0.032658541732222116
1.4495,0.022853299946721292
1.45,0.0421500212154096
1.4505000000000001,0.019703192088192035
1.451,-0.03138004820899373
1.4515,-0.08728637314238062
1.452,-0.12215297916122564
1.4525000000000001,-0.12206683197835455
1.453,-0.09401776236700005
1.4535,-0.05625523855363232
1.454,-0.021648058568528913
1.4545000000000001,0.003587181836429927
1.455,0.010899242848094699
1.4555,-0.005901520190374139
1.456,-0.034755903622309334
1.4565000000000001,-0.04843489974778575
1.457,-0.032870642999889725
1.4575,-0.004732719538259681
1.458,0.008106640992315277
1.4585000000000001,-0.0017125979584398478
1.459,-0.01732087263304628
1.4595,-0.021395956039989734
1.46,-0.013604035978498696
1.4605000000000001,-0.004585236549898384
1.461,-0.0027609672616438867
1.4615,-0.011371991298360007
1.462,-0.029510595931525347
1.4625000000000001,-0.04716181365409593
1.463,-0.04425704139164331
1.4635,-0.007161872900395402
1.464,0.04854731007144898
1.4645000000000001,0.07889305006285127
1.465,0.04810543578182168
1.4655,-0.03078638464513189
1.466,-0.10035789368390917
1.4665000000000001,-0.11100542040167459
1.467,-0.06486974239909395
1.4675,-0.004850475451854531
1.468,0.03151690308448066
1.4685000000000001,0.039343617200253644
1.469,0.03476024089646916
1.4695,0.030529710900286545
1.47,0.027645935052586623
1.4705000000000001,0.022913481851340796
1.471,0.015984490727950947
1.4715,0.008237930501304953
1.472,-7.562509917976613e-05
1.4725,-0.008681324668783
1.473,-0.01686012061384708
1.4735,-0.027014987737982363
1.474,-0.04303724852122336
1.4745,-0.05969417951702522
1.475,-0.060284184480626314
1.4755,-0.03491750971420977
1.476,0.0008608633396699531
1.4765,0.015975459762453632
1.477,-0.0035918545103330738
1.4775,-0.037569765129542715
1.478,-0.05258584574344362
1.4785,-0.03895589443583949
1.479,-0.020404845389907132
1.4795,-0.02532951560474013
1.48,-0.05269947538684963
1.4805,-0.07187635585513112
1.481,-0.057751803042660615
1.4815,-0.022278509839815237
1.482,-0.005155053701934727
1.4825,-0.031268538369874414
1.483,-0.08161483222723331
1.4835,-0.1109444579361635
1.484,-0.09292201619285398
1.4845,-0.04289318829513802
1.485,0.004054329424524481
1.4855,0.029725641334814076
1.486,0.042270107476500327
1.4865,0.05545510401224766
1.487,0.06810482502365114
1.4875,0.06473947748632253
1.488,0.032365502019783984
1.4885,-0.02212872830423835
1.489,-0.06831685229908567
1.4895,-0.07118124961032425
1.49,-0.022821054344114352
1.4905,0.043630136909117476
1.491,0.07774441687362964
1.4915,0.05351663498551967
1.492,-0.011283503359646837
1.4925,-0.07459523622452041
1.493,-0.10645283483783297
1.4935,-0.10810096460956845
1.494,-0.10026531724677996
1.4945,-0.0974449434384808
1.495,-0.09653906429572283
1.4955,-0.0886149925557542
1.496,-0.07420070256903714
1.4965,-0.06151186901458038
1.497,-0.0537113317407735
1.4975,-0.04557085543606223
1.498,-0.03213690145769735
1.4985,-0.013512764799585311
1.499,0.009656887744843733
1.4995,0.03729140694358294
1.5,0.06283215008057964
1.5005,0.07247261187657428
1.5010000000000001,0.058057058842740115
1.5015,0.027288124775991393
1.502,-0.003769667834046514
1.5025,-0.024615363583224466
1.5030000000000001,-0.031587076723795925
1.5035,-0.020940108562609194
1.504,0.007288656131847444
1.5045,0.03696225519821972
1.5050000000000001,0.039937258428442465
1.5055,0.0027418952328777235
1.506,-0.05395626221300639
1.5065,-0.08936940125621237
1.5070000000000001,-0.07623148122823667
1.5075,-0.020017924471580358
1.508,0.04916671792473516
1.5085,0.09758044959681288
1.5090000000000001,0.10395317359695845
1.5095,0.06520811843726802
1.51,-0.005574047817682156
1.5105,-0.08504768776602054
1.5110000000000001,-0.14607508488423457
1.5115,-0.1647162977758273
1.512,-0.13088119650642327
1.5125,-0.06067572853772705
1.5130000000000001,0.0030817723502378127
1.5135,0.01556384299630348
1.514,-0.03127148118872136
1.5145,-0.09318697217837871
1.5150000000000001,-0.10628519868848547
1.5155,-0.043658504108953056
1.516,0.0580494223324857
1.5165,0.12835418499256815
1.5170000000000001,0.11942737535759984
1.5175,0.039033637188061375
1.518,-0.0613093519306344
1.5185,-0.125728814856876
1.5190000000000001,-0.12976697330132772
1.5195,-0.0905081284264935
1.52,-0.04772539305539785
1.5205,-0.031156772159436387
1.5210000000000001,-0.03937402833972283
1.5215,-0.04809136389957358
1.522,-0.0388179666679878
1.5225,-0.01682146346989861
1.5230000000000001,1.849160026910334e-05
1.5235,0.004545349621733301
1.524,0.006209140400604151
1.5245,0.015025015886182175
1.5250000000000001,0.026229711443002377
1.5255,0.024061575041476227
1.526,-0.0005393115366785529
1.5265,-0.0373879586021229
1.5270000000000001,-0.06359225035472203
1.5275,-0.06439089715419048
1.528,-0.04600301210296504
1.5285,-0.02522365522524124
1.5290000000000001,-0.009183571175206419
1.5295,0.009436253272569514
1.53,0.037360691584953386
1.5305,0.0652651468838531
1.5310000000000001,0.07122340295656597
1.5315,0.04205184593234237
1.532,-0.008883790283767574
1.5325,-0.04782320580359244
1.5330000000000001,-0.04727810727346627
1.5335,-0.0091374852292081
1.534,0.03575662237061351
1.5345,0.05027294229667988
1.5350000000000001,0.017507604260532397
1.5355,-0.0483114766162511
1.536,-0.11367605250951764
1.5365,-0.1506084239773938
1.537,-0.15406335955600597
1.5375,-0.13849712344601414
1.538,-0.12022035856506022
1.5385,-0.10337833406090911
1.539,-0.07967734420006059
1.5395,-0.0385111799081547
1.54,0.021075522355155623
1.5405,0.0833010615963724
1.541,0.1197538571116265
1.5415,0.10880436740215889
1.542,0.0582698671982708
1.5425,0.0037514843629614255
1.543,-0.02397706286686929
1.5435,-0.026175390146802452
1.544,-0.023975865368341766
1.5445,-0.027451534602203058
1.545,-0.02993628830260254
1.5455,-0.027929164226281722
1.546,-0.029844977852073996
1.5465,-0.04105727811761901
1.547,-0.05083477672326237
1.5475,-0.04187176398208442
1.548,-0.010767615687923934
1.5485,0.026028538208927397
1.549,0.04792469148672374
1.5495,0.048085457950823696
1.55,0.032374851923047086
1.5505,0.005319126965005828
1.551,-0.0322869470405341
1.5515,-0.06971400241780681
1.552,-0.08284762911486569
1.5525,-0.056652767359133556
1.553,-0.007351527661934518
1.5535,0.02926959068275683
1.554,0.03284608745556005
1.5545,0.014458947048941724
1.555,-0.0032456809273571363
1.5555,-0.015079473733568934
1.556,-0.0365943507315199
1.5565,-0.07714350089139006
1.557,-0.11511901896470446
1.5575,-0.11142573058841357
1.558,-0.05250102739818245
1.5585,0.028037037835171995
1.559,0.0768616448866417
1.5595,0.06634787190493431
1.56,0.011359643118201996
1.5605,-0.052934415744440064
1.561,-0.10503487890516801
1.5615,-0.1480829109914319
1.562,-0.18890496752796462
1.5625,-0.2138084660200503
1.563,-0.19498002160884625
1.5635000000000001,-0.12259409171146622
1.564,-0.023739708057779543
1.5645,0.05596701110522241
1.565,0.08903157467769657
1.5655000000000001,0.08292252697697845
1.566,0.06332262601567548
1.5665,0.04735000335693078
1.567,0.03620824085615957
1.5675000000000001,0.025866721864397306
1.568,0.013507509055215918
1.5685,-0.004756278220106929
1.569,-0.03063059612283838
1.5695000000000001,-0.05494477781087256
1.57,-0.06047172428497981
1.5705,-0.03764664138079274
1.571,0.007575985778368238
1.5715000000000001,0.0627875448760425
1.572,0.11725086654396354
1.5725,0.15594130756559332
1.573,0.15495087132248606
1.5735000000000001,0.09743457774346616
1.574,-0.0006547776100761234
1.5745,-0.08840980485817343
1.575,-0.11571350763709042
1.5755000000000001,-0.07589883453694764
1.576,-0.009873581416956028
1.5765,0.03163010299586133
1.577,0.025995528989504857
1.5775000000000001,-0.01560733147174122
1.578,-0.06655686398283503
1.5785,-0.10312679904297402
1.579,-0.11380729632194189
1.5795000000000001,-0.10147002684900616
1.58,-0.07751229674806401
1.5805,-0.05071680464344431
1.581,-0.022618258454783997
1.5815000000000001,0.0050728441516144146
1.582,0.02215001887851205
1.5825,0.014550919185113139
1.583,-0.02047037241492127
1.5835000000000001,-0.06698868151507482
1.584,-0.10225508774900968
1.5845,-0.11355015025943214
1.585,-0.0992378848395057
1.5855000000000001,-0.05955735040976124
1.586,0.0008388693435293776
1.5865,0.05939022962150347
1.587,0.07801872717126027
1.5875000000000001,0.034367101036032
1.588,-0.04616098867678558
1.5885,-0.1006831952769523
1.589,-0.08335008520474652
1.5895000000000001,-0.010357305966203762
1.59,0.05426569872653666
1.5905,0.05778146786075374
1.591,0.003537506049306148
1.5915000000000001,-0.05744278057049574
1.592,-0.0751511948277221
1.5925,-0.044376455443491454
1.593,-0.005202970982920728
1.5935000000000001,-0.00045676792798446473
1.594,-0.03202927760491154
1.5945,-0.06113133283856475
1.595,-0.051080690194745024
1.5955000000000001,-0.005362456012883661
1.596,0.036808082195953634
1.5965,0.03736041495399107
1.597,-0.0079557838961433
1.5975000000000001,-0.06600413488898084
1.598,-0.09297399309251567
1.5985,-0.0713119113565397
1.599,-0.024308372647087503
1.5995000000000001,0.008465904321295738
1.6,0.011562234603381953
1.6005,0.006868983589505004
1.601,0.025393279165876942
1.6015,0.06992378307585806
1.602,0.1104575225781829
1.6025,0.11456252379050662
1.603,0.07562834005694695
1.6035,0.011563206256604399
1.604,-0.05410294429966121
1.6045,-0.10256468746432326
1.605,-0.11910436715432865
1.6055,-0.09876738248302411
1.606,-0.05846861775150553
1.6065,-0.031011078958581455
1.607,-0.03447322328865058
1.6075,-0.051976538780722795
1.608,-0.05210544264612138
1.6085,-0.026463034764751335
1.609,0.002963974349179553
1.6095,0.012111869161665019
1.61,-6.609768478985176e-05
1.6105,-0.015764024200989067
1.611,-0.017864425095552777
1.6115,-0.0027782429422228676
1.612,0.016658516909481436
1.6125,0.016010278585558667
1.613,-0.024140961025596572
1.6135,-0.09541247465962485
1.614,-0.1560561160639369
1.6145,-0.1592705762108678
1.615,-0.09670058445835433
1.6155,-0.011846217871296378
1.616,0.0380435532975898
1.6165,0.03393948143027195
1.617,0.00401716317807156
1.6175,-0.014874547840298916
1.618,-0.014066453243072801
1.6185,-0.011591097833489996
1.619,-0.024768916702132666
1.6195,-0.049794685258278786
1.62,-0.06449762720137618
1.6205,-0.048629811006073366
1.621,-0.0048316968270884445
1.6215,0.0386968368581968
1.622,0.050520356178370376
1.6225,0.025394223874145333
1.623,-0.008987341504093319
1.6235,-0.017514862388822428
1.624,0.009022507912895706
1.6245,0.046216604425216364
1.625,0.059358849757866136
1.6255,0.03201702934341727
1.6260000000000001,-0.024343672077966103
1.6265,-0.07965223792580357
1.627,-0.1015567489848821
1.6275,-0.07220010790215156
1.6280000000000001,-0.000911930379739528
1.6285,0.07639422807164986
1.629,0.11759700622709258
1.6295,0.10429862074660055
1.6300000000000001,0.05513099860657363
1.6305,0.007318210567461448
1.631,-0.014576000648400256
1.6315,-0.012217324053651531
1.6320000000000001,-0.005835011728305623
1.6325,-0.02086700981091292
1.633,-0.07217646319954199
1.6335,-0.1456097216998302
1.6340000000000001,-0.1962553203709161
1.6345,-0.17943719266432698
1.635,-0.09188653739247511
1.6355,0.019234772039563062
1.6360000000000001,0.09183089825345057
1.6365,0.09767246697554713
1.637,0.06077463957835622
1.6375,0.02858960500588866
1.6380000000000001,0.02396003100023366
1.6385,0.027162370231994866
1.639,0.005485892325766637
1.6395,-0.0467001630666907
1.6400000000000001,-0.10310273840999414
1.6405,-0.1342709756966304
1.641,-0.1311831890099979
1.6415,-0.1025837342913296
1.6420000000000001,-0.06294286531264565
1.6425,-0.03076033804032582
1.643,-0.027755948933335335
1.6435,-0.062057124340470234
1.6440000000000001,-0.11042395283328903
1.6445,-0.13149663640521056
1.645,-0.10535048001593222
1.6455,-0.053706804739375766
1.6460000000000001,-0.015014588142236163
1.6465,-0.006019868296783396
1.647,-0.015373362227521505
1.6475,-0.027117657675048534
1.6480000000000001,-0.035196359278422726
1.6485,-0.03487458162132911
1.649,-0.01528664385798881
1.6495,0.03025812644195368
1.6500000000000001,0.09056013437977041
1.6505,0.1384384123634943
1.651,0.1483331885968559
1.6515,0.11491075225984282
1.6520000000000001,0.056698817680171876
1.6525,0.0012559039086492488
1.653,-0.033115899227710105
1.6535,-0.042142587797493684
1.6540000000000001,-0.02957493805557282
1.6545,-0.004618964301641111
1.655,0.01735916302789549
1.6555,0.02282736153032068
1.6560000000000001,0.013345735965389089
1.6565,0.004649843149457577
1.657,0.007560249782336578
1.6575,0.013214834864438415
1.6580000000000001,0.001977849752553746
1.6585,-0.03415180878616393
1.659,-0.08074085165288684
1.6595,-0.11076026630188604
1.6600000000000001,-0.10376942371627387
1.6605,-0.06034819308086774
1.661,-0.003993167845526819
1.6615,0.032002402646882824
1.6620000000000001,0.02760988615220277
1.6625,-0.006786959692046202
1.663,-0.03772507205572957
1.6635,-0.04014571968910381
1.6640000000000001,-0.022832021457141975
1.6645,-0.016565117967832665
1.665,-0.03623630696168979
1.6655,-0.06294347438097572
1.666,-0.06734414548552645
1.6665,-0.043090487860401865
1.667,-0.010845593050270884
1.6675,0.0062984619681184136
1.668,0.004985139082332414
1.6685,0.00034300760255751104
1.669,0.007235180930056221
1.6695,0.025117282132636268
1.67,0.04115608762597999
1.6705,0.04476474843999593
1.671,0.03450531419079661
1.6715,0.012232215202379942
1.672,-0.02196109029189418
1.6725,-0.06514111652447936
1.673,-0.1052352878968698
1.6735,-0.12373738396271285
1.674,-0.10741933430777993
1.6745,-0.059801002003119996
1.675,-0.002086205258941887
1.6755,0.038760194546063574
1.676,0.045623942099479044
1.6765,0.018961750024680583
1.677,-0.025748799744227308
1.6775,-0.06660000317105123
1.678,-0.0871079189705523
1.6785,-0.0859717540762368
1.679,-0.07434212800558956
1.6795,-0.061126036588061435
1.68,-0.044944860313894525
1.6805,-0.023329608053672152
1.681,-0.002702276329769171
1.6815,0.007501991717823171
1.682,0.005542159487656901
1.6825,-0.004413740052694614
1.683,-0.01997245596171043
1.6835,-0.03870940596235653
1.684,-0.051299970194630576
1.6845,-0.04488836923092737
1.685,-0.017123969499592624
1.6855,0.015126794980377825
1.686,0.026842737775906744
1.6865,0.01071964545025138
1.687,-0.009497016320414556
1.6875,0.00013477375673841448
1.688,0.0464947401633133
1.6885000000000001,0.09705215887381857
1.689,0.10677856637295567
1.6895,0.05792749556578356
1.69,-0.022659153556653412
1.6905000000000001,-0.08288687380525515
1.691,-0.08605204403913504
1.6915,-0.03880293349159896
1.692,0.01846026968394291
1.6925000000000001,0.04864367408296168
1.693,0.044177261336361816
1.6935,0.0188635662700155
1.694,-0.014706063262417517
1.6945000000000001,-0.05055620998269434
1.695,-0.0806540827126681
1.6955,-0.09612140984598885
1.696,-0.09805571395088546
1.6965000000000001,-0.09688916532181124
1.697,-0.09758436210166413
1.6975,-0.091119095175813
1.698,-0.06507090225060923
1.6985000000000001,-0.02244150227035842
1.699,0.013115629360220009
1.6995,0.01591339684593446
1.7,-0.014739780728555515
1.7005000000000001,-0.04804269881255812
1.701,-0.0457019289996387
1.7015,0.0052423198623592305
1.702,0.08017008296252263
1.7025000000000001,0.13431857098159833
1.703,0.13508429346690268
1.7035,0.0854347079896793
1.704,0.021704773552130307
1.7045000000000001,-0.014075254727518298
1.705,-0.006851313680059059
1.7055,0.022183078499616246
1.706,0.03798080469332094
1.7065000000000001,0.022933178009671012
1.707,-0.011799968035213663
1.7075,-0.04123537257712825
1.708,-0.05092620207792229
1.7085000000000001,-0.04877110920456305
1.709,-0.05374412467212297
1.7095,-0.07183340711306285
1.71,-0.08545663596556594
1.7105000000000001,-0.0720710766207257
1.711,-0.03327792209786516
1.7115,0.0010411456046032358
1.712,0.0013529598955349196
1.7125000000000001,-0.030959261495004713
1.713,-0.06397688243346723
1.7135,-0.06662485168938664
1.714,-0.040088128866759276
1.7145000000000001,-0.016725203979827494
1.715,-0.02544513172974629
1.7155,-0.06034472902935107
1.716,-0.08848797898519027
1.7165000000000001,-0.08657534109788215
1.717,-0.06201700468953418
1.7175,-0.03755354020092512
1.718,-0.02462289603145721
1.7185000000000001,-0.01642256372371391
1.719,-0.0006112204178843695
1.7195,0.026052126616092786
1.72,0.05225978346101757
1.7205000000000001,0.06031178732951531
1.721,0.044580004443108
1.7215,0.02141909497442524
1.722,0.013595056820280508
1.7225000000000001,0.023353902872190996
1.723,0.027718599825373363
1.7235,0.0038665363203297023
1.724,-0.045225702327319796
1.7245000000000001,-0.09268839065665145
1.725,-0.11178892617663666
1.7255,-0.09758947089106654
1.726,-0.06916956501555477
1.7265000000000001,-0.05180510614708931
1.727,-0.0539167329686358
1.7275,-0.060310204136330134
1.728,-0.04934945732149017
1.7285,-0.01625206302238634
1.729,0.021832732107052274
1.7295,0.04187145915702058
1.73,0.03346069609584233
1.7305,0.003885185866582071
1.731,-0.028562944454652295
1.7315,-0.04361078461926417
1.732,-0.028674787524539905
1.7325,0.010231032499398225
1.733,0.04761507781417802
1.7335,0.057554255932304746
1.734,0.036165737186945233
1.7345,0.001303559171024705
1.735,-0.026016257465043498
1.7355,-0.03179982967787048
1.736,-0.0076695835794826864
1.7365,0.04276383653788825
1.737,0.09300482429222937
1.7375,0.10577971543642599
1.738,0.0688842580180097
1.7385,0.014644126594197384
1.739,-0.006028356667901849
1.7395,0.027441703378895975
1.74,0.08292360881909515
1.7405,0.10352697582123879
1.741,0.059799636383560846
1.7415,-0.023544313706260322
1.742,-0.09011790697038158
1.7425,-0.10039391598375301
1.743,-0.061915198788198816
1.7435,-0.016760977667101287
1.744,-0.0020188626175246995
1.7445,-0.02244734190189164
1.745,-0.05767054266329165
1.7455,-0.08840874988842308
1.746,-0.11093448485370885
1.7465,-0.1293979912074149
1.747,-0.14203472101536416
1.7475,-0.13913637642150267
1.748,-0.11275783537553402
1.7485,-0.06610984649623405
1.749,-0.01423124374296815
1.7495,0.02442680595114638
1.75,0.04042080598886821
1.7505,0.0391916779213495
1.7510000000000001,0.031594202358694465
1.7515,0.017883690579288083
1.752,-0.012682431957255467
1.7525,-0.061996567572357344
1.7530000000000001,-0.10728789313424521
1.7535,-0.11228325145977268
1.754,-0.058890171067473046
1.7545,0.02960249322051784
1.7550000000000001,0.09927942159657249
1.7555,0.10646853130355698
1.756,0.05165046245635125
1.7565,-0.026422545576488037
1.7570000000000001,-0.0846686330021106
1.7575,-0.09996900861430544
1.758,-0.07132329187526873
1.7585,-0.016149315256852207
1.7590000000000001,0.03271803924145421
1.7595,0.0403688176706984
1.76,-0.005712991433610623
1.7605,-0.07968428549178869
1.7610000000000001,-0.13015142786085465
1.7615,-0.11923552022181735
1.762,-0.05668878396326428
1.7625,0.006383449038266676
1.7630000000000001,0.0231446767235606
1.7635,-0.008353677743977952
1.764,-0.04921743568754673
1.7645,-0.05881020840356992
1.7650000000000001,-0.027510250965928927
1.7655,0.02219807595213425
1.766,0.05976236943208135
1.7665,0.07269779627136522
1.7670000000000001,0.07278942386979399
1.7675,0.0778750676837663
1.768,0.08922228542248438
1.7685,0.08935491596015788
1.7690000000000001,0.06262539749849746
1.7695,0.016121784928455993
1.77,-0.022798991499019844
1.7705,-0.03127101813704925
1.7710000000000001,-0.010771296228772332
1.7715,0.018612001622096128
1.772,0.037902330927285136
1.7725,0.04000889998564461
1.7730000000000001,0.02867494145524095
1.7735,0.014891507576660057
1.774,0.010475351938147958
1.7745,0.016148895907696272
1.7750000000000001,0.01544249665433398
1.7755,-0.011824910598251418
1.776,-0.06516270572348662
1.7765,-0.11638866908869593
1.7770000000000001,-0.13307449724874545
1.7775,-0.10809372794164834
1.778,-0.06125110723142421
1.7785,-0.015318902192561282
1.7790000000000001,0.01952510405106656
1.7795,0.03830576520492787
1.78,0.03301894271659672
1.7805,0.0018188967518363089
1.7810000000000001,-0.03860860723474593
1.7815,-0.05957332765940163
1.782,-0.04323629894586895
1.7825,-9.122914084764514e-05
1.7830000000000001,0.03469037790055836
1.7835,0.025694152033439315
1.784,-0.03252721844345822
1.7845,-0.10482181561743074
1.7850000000000001,-0.1403804420394128
1.7855,-0.1157384714341456
1.786,-0.05489927960869393
1.7865,-0.00528377222875135
1.7870000000000001,0.006620374437416398
1.7875,-0.005087889843233521
1.788,-0.008485916203395482
1.7885,0.009160722360838095
1.7890000000000001,0.030511706462911313
1.7895,0.030686807514652366
1.79,0.004491311263107959
1.7905,-0.029862910966089576
1.7910000000000001,-0.04959065668695391
1.7915,-0.04651602579514498
1.792,-0.030168267675765716
1.7925,-0.01632071721870411
1.793,-0.012225409999341914
1.7935,-0.01051118889625562
1.794,0.0011841308133443904
1.7945,0.02237935686543727
1.795,0.03481597863021382
1.7955,0.02057065379267158
1.796,-0.015604032013625754
1.7965,-0.04713214350180932
1.797,-0.05053468877400504
1.7975,-0.026607183427498307
1.798,0.004114711400901257
1.7985,0.022448642191262275
1.799,0.02385110764017926
1.7995,0.014851566861386322
1.8,0.002979743686004574
1.8005,-0.008124562491383517
1.801,-0.01694151648187888
1.8015,-0.022109644097915694
1.802,-0.025313412263260737
1.8025,-0.03403416594883836
1.803,-0.05471304580757848
1.8035,-0.07974265928632426
1.804,-0.0862045961550413
1.8045,-0.055192670718780916
1.805,0.005936098773058512
1.8055,0.0643896164693259
1.806,0.08683502812323726
1.8065,0.06337107598110094
1.807,0.01114179659907014
1.8075,-0.03997890409336323
1.808,-0.06687046516054146
1.8085,-0.06551520121484887
1.809,-0.04827514726457202
1.8095,-0.029532282515519738
1.81,-0.014232933180221608
1.8105,0.00032637776006567455
1.811,0.01507598480502984
1.8115,0.025500769368070254
1.812,0.027984438105069356
1.8125,0.026675584992433977
1.813,0.030199039551400762
1.8135000000000001,0.04095565344768572
1.814,0.05063320015865676
1.8145,0.04828377175541934
1.815,0.03094420083279984
1.8155000000000001,0.004293223730524524
1.816,-0.024475322444564192
1.8165,-0.04995530654088192
1.817,-0.06601097641631117
1.8175000000000001,-0.06641878779629655
1.818,-0.05078408205571565
1.8185,-0.026865180507610546
1.819,-0.005406878205162245
1.8195000000000001,0.0061851159484915055
1.82,0.006357574993488476
1.8205,-0.0005835340304685896
1.821,-0.005607983666151277
1.8215000000000001,0.0006927536971135673
1.822,0.020198617162471694
1.8225,0.043116422847387995
1.823,0.05568044836921932
1.8235000000000001,0.05344777681424673
1.824,0.042773416587805126
1.8245,0.02743038841557608
1.825,0.001213237897138553
1.8255000000000001,-0.038982061589349165
1.826,-0.07873236206481207
1.8265,-0.09686505096773367
1.827,-0.09050947113214958
1.8275000000000001,-0.0784413128016474
1.828,-0.07672648049440285
1.8285,-0.08019976105382295
1.829,-0.07394973754053365
1.8295000000000001,-0.05772223731464323
1.83,-0.04917581305913023
1.8305,-0.059499737114635694
1.831,-0.0741467482848379
1.8315000000000001,-0.06963893562672284
1.832,-0.04738219804300692
1.8325,-0.03433515022980625
1.833,-0.04339942700011099
1.8335000000000001,-0.04866859911747729
1.834,-0.015438371840266111
1.8345,0.0526376682848379
1.835,0.11276919859990153
1.8355000000000001,0.12782919201703627
1.836,0.09716021743338207
1.8365,0.04232726051289538
1.837,-0.019208803297118493
1.8375000000000001,-0.07493040234559536
1.838,-0.1038703853911031
1.8385,-0.08242239915237168
1.839,-0.011330664598354596
1.8395000000000001,0.07059189412735582
1.84,0.11263642472669913
1.8405,0.09781563975296412
1.841,0.057602724946414025
1.8415000000000001,0.036412469980352406
1.842,0.04462975883623428
1.8425,0.05250746359658894
1.843,0.03059088339206985
1.8435000000000001,-0.010193062007478618
1.844,-0.02760889161323485
1.8445,-0.001356735182911118
1.845,0.031359637239199045
1.8455000000000001,0.009039452642952006
1.846,-0.08131126275156161
1.8465,-0.1759562544348925
1.847,-0.1893849776754918
1.8475000000000001,-0.09708656318881138
1.848,0.039480192759736285
1.8485,0.12757008000727008
1.849,0.11935804006717335
1.8495000000000001,0.03987822222780134
1.85,-0.04714612416863519
1.8505,-0.09326992349951264
1.851,-0.09146180183914701
1.8515000000000001,-0.06357492232801212
1.852,-0.03319415420274353
1.8525,-0.010556210018583855
1.853,0.004954582614561875
1.8535000000000001,0.016068189402429406
1.854,0.023377721269838204
1.8545,0.026510168903447602
1.855,0.024611524235878163
1.8555000000000001,0.01309268385461958
1.856,-0.015814228931588493
1.8565,-0.061209739702539664
1.857,-0.10217963251386382
1.8575,-0.10864717923057153
1.858,-0.07139191824076077
1.8585,-0.01825022585475985
1.859,0.00789110615486684
1.8595,-0.006869204801094074
1.86,-0.027519822254497422
1.8605,-0.00499798519099784
1.861,0.06320325578274685
1.8615,0.11859005850744345
1.862,0.1012179854631695
1.8625,0.017869539156203325
1.863,-0.06317488325400931
1.8635,-0.0825316020508706
1.864,-0.04194168454256501
1.8645,0.01059466805619681
1.865,0.030951382731372046
1.8655,0.01042407487024194
1.866,-0.027870828634919274
1.8665,-0.05174704626321484
1.867,-0.04188647510881026
1.8675,-0.0009135622891258167
1.868,0.05231679008304217
1.8685,0.09447516576497964
1.869,0.10558700231750817
1.8695,0.0742846113841965
1.87,0.006268206834883551
1.8705,-0.07114407536488267
1.871,-0.1215748254324784
1.8715,-0.12518906968496296
1.872,-0.09429712162644363
1.8725,-0.05982556601325673
1.873,-0.037929888450570895
1.8735,-0.014000857771784343
1.874,0.032743433532154406
1.8745,0.09271514638027432
1.875,0.12571742940557729
1.8755,0.10014240254915044
1.8760000000000001,0.02640414771735322
1.8765,-0.05085879448845405
1.877,-0.08999155336548322
1.8775,-0.081121198178913
1.8780000000000001,-0.0453268946612914
1.8785,-0.014099652348815838
1.879,-0.00928698509885887
1.8795,-0.03173269738621125
1.8800000000000001,-0.05940851443703171
1.8805,-0.060973558602635605
1.881,-0.023686311773324788
1.8815,0.029335348518208678
1.8820000000000001,0.058127065635212534
1.8825,0.04611931090398345
1.883,0.01603204684202797
1.8835,0.002977525976175434
1.8840000000000001,0.016793812618569062
1.8845,0.03468955950421432
1.885,0.028306063335363795
1.8855,-0.006627365449046077
1.8860000000000001,-0.04884321810233889
1.8865,-0.07526554338363989
1.887,-0.07965857043637094
1.8875,-0.06889853247192468
1.8880000000000001,-0.05124587410214404
1.8885,-0.03420059422385608
1.889,-0.02598371452383083
1.8895,-0.02804793705098456
1.8900000000000001,-0.02694679759019123
1.8905,-0.003178511353021527
1.891,0.04801352494642512
1.8915,0.10761382809022252
1.8920000000000001,0.14526559230104405
1.8925,0.14015977289593376
1.893,0.0930431312198087
1.8935,0.021633529448455435
1.8940000000000001,-0.05397278441793892
1.8945,-0.12001793132325769
1.895,-0.16568209139834772
1.8955,-0.17979220990096306
1.8960000000000001,-0.157318607607217
1.8965,-0.1056868611101595
1.897,-0.04101160069625954
1.8975,0.01743311599020579
1.8980000000000001,0.04953630554846459
1.8985,0.04501884993522667
1.899,0.019653808706943793
1.8995,0.00923265682682611
1.9000000000000001,0.03400510366887351
1.9005,0.07186454449193388
1.901,0.07754382214317102
1.9015,0.03147892022109748
1.9020000000000001,-0.03560650293501876
1.9025,-0.07001908277843583
1.903,-0.04429034058363885
1.9035,0.0220250608044837
1.9040000000000001,0.08500610900623284
1.9045,0.11323140859709963
1.905,0.10312033339702661
1.9055,0.06812141582619763
1.9060000000000001,0.024764227814888816
1.9065,-0.010280223847322655
1.907,-0.022257045863186067
1.9075,-0.008044487451128825
1.9080000000000001,0.017794372129049447
1.9085,0.032711469460035655
1.909,0.024144624331218296
1.9095,-0.0015975378571410036
1.9100000000000001,-0.025992774132563554
1.9105,-0.03257342398008464
1.911,-0.018355616140008885
1.9115,0.0032006353853998738
1.9120000000000001,0.010226020688189301
1.9125,-0.01118224668531963
1.913,-0.05482861179517004
1.9135,-0.09941354554204407
1.9140000000000001,-0.12616081001008128
1.9145,-0.13015550199363038
1.915,-0.1154074245230272
1.9155,-0.084265227425877
1.9160000000000001,-0.037823161548974894
1.9165,0.012523706850833963
1.917,0.04128052962909146
1.9175,0.025990259712414483
1.9180000000000001,-0.02903170578670122
1.9185,-0.08986182035422377
1.919,-0.11719135088976239
1.9195,-0.09417546133584352
1.92,-0.03331841221516099
1.9205,0.03745822591101457
1.921,0.09222573957410754
1.9215,0.11642015783583694
1.922,0.1085355369517611
1.9225,0.07639034321829992
1.923,0.029766895495150665
1.9235,-0.0231385826888639
1.924,-0.06970423491994233
1.9245,-0.08792869581085913
1.925,-0.05907453778316546
1.9255,0.008438390925847042
1.926,0.0733045936124761
1.9265,0.08960973538693226
1.927,0.0466380793019077
1.9275,-0.019167422740705414
1.928,-0.05371498258331801
1.9285,-0.029664701198539253
1.929,0.033231758813501336
1.9295,0.08705621125990846
1.93,0.09601838865697757
1.9305,0.06441969566683457
1.931,0.028585999170663012
1.9315,0.01977913872362631
1.932,0.034438093932099054
1.9325,0.042122062071822806
1.933,0.019584962488502895
1.9335,-0.027997320013066138
1.934,-0.07711342457090557
1.9345,-0.10888554601346731
1.935,-0.11880048571590243
1.9355,-0.11039725688158906
1.936,-0.08950998101983992
1.9365,-0.06624380398190653
1.937,-0.05243871130150017
1.9375,-0.04752627589569621
1.938,-0.029638563269292033
1.9385000000000001,0.027557902650906484
1.939,0.12130460019130307
1.9395,0.20619390736300397
1.94,0.22375969736900417
1.9405000000000001,0.15153030944129722
1.941,0.022527103201227954
1.9415,-0.10220222718567352
1.942,-0.1756673341068815
1.9425000000000001,-0.1846919058739083
1.943,-0.14470913336112112
1.9435,-0.08481013169858985
1.944,-0.031059689791389927
1.9445000000000001,0.005453891600950139
1.945,0.027085803484426043
1.9455,0.0382529403275306
1.946,0.04002899681073558
1.9465000000000001,0.03543619686509297
1.947,0.0310945735135005
1.9475,0.02770091805446418
1.948,0.016111413937084623
1.9485000000000001,-0.007882584791042608
1.949,-0.02912945180979314
1.9495,-0.024344083463167143
1.95,0.009647338621145146
1.9505000000000001,0.044436724855886595
1.951,0.043444765990229256
1.9515,0.00060183545594443
1.952,-0.047399468790933465
1.9525000000000001,-0.05529557546766341
1.953,-0.017080209044246765
1.9535,0.02776862982072604
1.954,0.03893977918216567
1.9545000000000001,0.017977802356801048
1.955,-0.0008404464646371203
1.9555,0.0042709572905616925
1.956,0.019644620068290933
1.9565000000000001,0.019787349451973715
1.957,0.0005850031973901647
1.9575,-0.021092234540756226
1.958,-0.033747926851404646
1.9585000000000001,-0.043090173554379226
1.959,-0.05568871621578587
1.9595,-0.06266630810589832
1.96,-0.04918220568641842
1.9605000000000001,-0.016975691295853773
1.961,0.012502849636240532
1.9615,0.022308865973857527
1.962,0.021589061141132765
1.9625000000000001,0.033722664984341504
1.963,0.06366918257334886
1.9635,0.08814494893571764
1.964,0.08330747199625817
1.9645000000000001,0.05342763523533418
1.965,0.02330482665251425
1.9655,0.007099736014580619
1.966,-0.004388928412124443
1.9665000000000001,-0.025039945006265853
1.967,-0.05249684698376901
1.9675,-0.07114795380521348
1.968,-0.06845637032578833
1.9685000000000001,-0.041886799786226954
1.969,0.0026099726781131094
1.9695,0.047911966382459044
1.97,0.06552808444699221
1.9705000000000001,0.03303008270608396
1.971,-0.04154898424379623
1.9715,-0.11854296444948038
1.972,-0.15550174477837508
1.9725000000000001,-0.13685619946466535
1.973,-0.07758063447663217
1.9735,-0.00769025565986648
1.974,0.042054949846968344
1.9745000000000001,0.051563835074155
1.975,0.025602099912074305
1.9755,-0.003662577335913946
1.976,-0.0019741031332724877
1.9765000000000001,0.0331233247104699
1.977,0.06783766406960064
1.9775,0.06275333444488086
1.978,0.006794359401979623
1.9785000000000001,-0.07330973677280733
1.979,-0.13037868639288575
1.9795,-0.12826527975797275
1.98,-0.06798947301507782
1.9805000000000001,0.011468088200950615
1.981,0.06069206733387473
1.9815,0.05495847299995508
1.982,0.01040557516873074
1.9825000000000002,-0.03025007326768197
1.983,-0.030177887208444405
1.9835,0.01810801960874728
1.984,0.09288341529936622
1.9845,0.15686241954580174
1.985,0.17466796359635514
1.9855,0.13632131270341916
1.986,0.07323027710767066
1.9865,0.037887767967375356
1.987,0.054027244418940204
1.9875,0.09111321096871816
1.988,0.09730456687052201
1.9885,0.05530815441511946
1.989,-0.0014262589637564459
1.9895,-0.026385726744034395
1.99,-0.00625401308861831
1.9905,0.031698589255551045
1.991,0.049886181232762485
1.9915,0.030613080071333818
1.992,-0.018736555469212934
1.9925,-0.07754794406882083
1.993,-0.12352568273450605
1.9935,-0.14075436995368987
1.994,-0.1286760889488696
1.9945,-0.10562000685327004
1.995,-0.09497143076076127
1.9955,-0.10238240256336582
1.996,-0.11144594846900811
1.9965,-0.10532062842008828
1.997,-0.08652235486154665
1.9975,-0.06985254934131115
1.998,-0.06012355220232532
1.9985,-0.04524113150874564
1.999,-0.014143020149154317
1.9995,0.02345833725257678
2.0,0.2424905083920911
2.0005,0.1796493322863509
2.001,0.05048491611916709
2.0015,0.01577530549982782
2.0020000000000002,0.13056964935947166
2.0025,0.2962103111554678
2.003,0.3632603021825251
2.0035,0.2738283885310022
2.004,0.12469326552531822
2.0045,0.08253451616087096
2.005,0.20164284633802246
2.0055,0.34076154031236594
2.0060000000000002,0.308930314597251
2.0065,0.09099686112217485
2.007,-0.11464370447887168
2.0075,-0.09783626563560667
2.008,0.14255293065337987
2.0085,0.3927236610068996
2.009,0.4300425189602541
2.0095,0.22085529388818756
2.0100000000000002,-0.08570342426100633
2.0105,-0.33166826852378417
2.011,-0.47009978803200053
2.0115,-0.5014783462528815
2.012,-0.3680976071894318
2.0125,-0.012834004762734342
2.013,0.4555629599186107
2.0135,0.7565611216392439
2.0140000000000002,0.6733147056287443
2.0145,0.27696744947937346
2.015,-0.1290623888369757
2.0155,-0.28956017220921726
2.016,-0.20150509080624157
2.0165,-0.052154354360634717
2.017,-0.0018411006970169821
2.0175,-0.0545771686511804
2.0180000000000002,-0.11141591526813045
2.0185,-0.09272939733221998
2.019,0.009993650240278571
2.0195,0.15852710824893898
2.02,0.292793672163529
2.0205,0.33990890633668724
2.021,0.25197250141956135
2.0215,0.062191232728239995
2.0220000000000002,-0.1166006420537113
2.0225,-0.17302868638502153
2.023,-0.0856512685407227
2.0235,0.06002150036774363
2.024,0.1407463387728665
2.0245,0.09433401209394277
2.025,-0.04246544280958438
2.0255,-0.1894873956378405
2.0260000000000002,-0.2981088335276181
2.0265,-0.3594442054904707
2.027,-0.3617195684655515
2.0275,-0.28249209742144515
2.028,-0.14548229384958702
2.0285,-0.06483857738601828
2.029,-0.17852947594829113
2.0295,-0.4902426447423859
2.0300000000000002,-0.7859050279519059
2.0305,-0.7684944743400399
2.031,-0.32559558157181734
2.0315,0.34050500453817456
2.032,0.8687811618385324
2.0325,1.01974013950718
2.033,0.8087142669916972
2.0335,0.42365076741548163
2.0340000000000003,0.06586773798041172
2.0345,-0.15798548925093292
2.035,-0.26100429124944124
2.0355,-0.3211462868749532
2.036,-0.3775605324860109
2.0365,-0.37653274559002925
2.037,-0.25223785106660235
2.0375,-0.06027356182830646
2.0380000000000003,0.03674316004075856
2.0385,-0.0364362113875113
2.039,-0.13998802871624644
2.0395,-0.062215706298451856
2.04,0.2210582859672573
2.0405,0.4949040466158611
2.041,0.5240318251553943
2.0415,0.2871700571706165
2.0420000000000003,-0.008493421098190256
2.0425,-0.11796858131444628
2.043,0.03043333207590684
2.0435,0.2833836681899518
2.044,0.4196522561726857
2.0445,0.36657748577237764
2.045,0.24054630810113542
2.0455,0.17100194531981824
2.0460000000000003,0.13725339917618326
2.0465,0.01940551587746713
2.047,-0.21929394455871598
2.0475,-0.4491837975416064
2.048,-0.47957054906744
2.0485,-0.236363334399567
2.049,0.15305460331184342
2.0495,0.43441470341892574
2.05,0.4106850283517591
2.0505,0.10727759839650916
2.051,-0.23593976760635446
2.0515,-0.37826263923549913
2.052,-0.29205928920421725
2.0525,-0.13604555287755507
2.053,-0.03887640827555282
2.0535,0.025385338010725962
2.054,0.13957863592361747
2.0545,0.28598154985144003
2.055,0.33555926307563366
2.0555,0.18493374245709748
2.056,-0.12264518412551069
2.0565,-0.4159258802385115
2.057,-0.5273259637551252
2.0575,-0.4146700215058036
2.058,-0.1743446069032177
2.0585,0.04767777414830166
2.059,0.154859435618262
2.0595,0.13167906687569156
2.06,0.014521114683620107
2.0605,-0.1443833541547751
2.061,-0.29024410863698763
2.0615,-0.365776007922724
2.062,-0.32555635478016176
2.0625,-0.17629375866930458
2.063,2.761973020185514e-05
2.0635,0.10526373474723995
2.064,0.13481589202185357
2.0645000000000002,0.18746595531278826
2.065,0.3099922834018081
