tiempo_s,emg_mV
0.0,-0.007597208298687506
0.0005,0.056600594223488176
0.001,0.07610511036867958
0.0015,0.06809236614459016
0.002,0.09109902271347912
0.0025,0.16850265694012
0.003,0.2551505681360607
0.0035,0.28618841145794505
0.004,0.24393123607966247
0.0045000000000000005,0.16872808044179166
0.005,0.11613777427968709
0.0055,0.1132435582716787
0.006,0.1471194903917412
0.006500000000000001,0.18116771623010067
0.007,0.1822988569702112
0.0075,0.14223689227157285
0.008,0.0792179007871664
0.0085,0.021005540873761528
0.009000000000000001,-0.014824308137702386
0.0095,-0.03188768241081891
0.01,-0.053083542283424184
0.0105,-0.09799386103828653
0.011,-0.14907443013715907
0.0115,-0.15074768011921158
0.012,-0.06635066323577976
0.0125,0.06164996637701436
0.013000000000000001,0.13170478436695998
0.0135,0.08039284537831401
0.014,-0.047318892843013244
0.0145,-0.13768172956396982
0.015,-0.1172098551493789
0.0155,-0.016160014342581047
0.016,0.0714322606728749
0.0165,0.07901939735585689
0.017,0.018685078928811327
0.0175,-0.044888577748019534
0.018000000000000002,-0.0604934161689769
0.0185,-0.03367916148036686
0.019,-0.013279791974774642
0.0195,-0.03710910363603817
0.02,-0.08871523889262824
0.0205,-0.11100206886662971
0.021,-0.06642246081714168
0.021500000000000002,0.021996691154368225
0.022,0.0948873396647541
0.0225,0.11387410350621832
0.023,0.0854992663631804
0.0235,0.03507188769644369
0.024,-0.025556915399164826
0.0245,-0.09544210394194723
0.025,-0.15767272121983728
0.025500000000000002,-0.17063061714556288
0.026000000000000002,-0.09973604494286
0.0265,0.03552394266254992
0.027,0.1533590276102036
0.0275,0.16819146409947772
0.028,0.07038326004476628
0.0285,-0.05998438028849959
0.029,-0.12972412375502865
0.029500000000000002,-0.11801887552312829
0.03,-0.07799925940691431
0.0305,-0.06326046608518733
0.031,-0.07142661688609497
0.0315,-0.06291941122307353
0.032,-0.017838814560924506
0.0325,0.04038042836853339
0.033,0.07144835136990768
0.0335,0.055118214882874245
0.034,0.005170422258750252
0.0345,-0.039668148201477293
0.035,-0.03871271344220824
0.035500000000000004,0.021864935056501444
0.036000000000000004,0.11233669715725209
0.0365,0.1737954257390696
0.037,0.15857619280959837
0.0375,0.06509720246870067
0.038,-0.06049187360333813
0.0385,-0.1524661668265546
0.039,-0.16154259845834648
0.0395,-0.08198947223279612
0.04,0.04405892497039726
0.0405,0.15392021747626253
0.041,0.20472552462334956
0.0415,0.19101672217462665
0.042,0.13138143923719542
0.0425,0.049134665050458
0.043000000000000003,-0.035682758892679224
0.043500000000000004,-0.10809474518749126
0.044,-0.15790524812939127
0.0445,-0.1764478190775567
0.045,-0.15835821239436834
0.0455,-0.1113809031946718
0.046,-0.05752787955634096
0.0465,-0.01733884269053137
0.047,0.002612989381903989
0.0475,0.005023125857682864
0.048,-0.0034321265807881803
0.0485,-0.006924993882215041
0.049,0.014865121623053817
0.0495,0.06236616080659642
0.05,0.10565409664450177
0.0505,0.11513119310526014
0.051000000000000004,0.09790762392469529
0.051500000000000004,0.085711880611644
0.052000000000000005,0.08815312665730746
0.0525,0.08002844133039917
0.053,0.04188525812538801
0.0535,-0.008011940760781412
0.054,-0.03666296411648282
0.0545,-0.03584849364650239
0.055,-0.021527976880514867
0.0555,-0.004111548056282837
0.056,0.01949342995780425
0.0565,0.044300150173094424
0.057,0.04904970231243554
0.0575,0.022625999416903384
0.058,-0.013328984247573067
0.0585,-0.02531860832862957
0.059000000000000004,-0.008300943596415271
0.059500000000000004,0.008998476636880767
0.06,-0.0003439661554642511
0.0605,-0.029677321642494918
0.061,-0.043566625566634064
0.0615,-0.011369009107850441
0.062,0.06021613546873512
0.0625,0.12490355698297999
0.063,0.1319291673244984
0.0635,0.07028024339497563
0.064,-0.01882326120061254
0.0645,-0.0749769047387005
0.065,-0.07001235259704458
0.0655,-0.03090115039681312
0.066,-0.01035345019571391
0.0665,-0.0341045183034339
0.067,-0.07974524401379116
0.0675,-0.1061627494824639
0.068,-0.09655645812123637
0.0685,-0.06694763823519423
0.069,-0.03774466396420238
0.0695,-0.012458283661969168
0.07,0.008007969330512229
0.07050000000000001,0.0057381035370957945
0.07100000000000001,-0.03665037828101421
0.07150000000000001,-0.09775321327270263
0.07200000000000001,-0.1179362706258237
0.0725,-0.055516250536728685
0.073,0.06111691686111918
0.0735,0.15096895252102663
0.074,0.1540053609397901
0.0745,0.08351585970712933
0.075,0.008643041439556189
0.0755,-0.007488217767203081
0.076,0.044087236024949246
0.0765,0.11848577728906588
0.077,0.15789742383654884
0.0775,0.1356789283311546
0.078,0.06845267290532067
0.0785,-0.007579504231587966
0.079,-0.06876955366146933
0.0795,-0.1132197053922119
0.08,-0.14181037238734392
0.0805,-0.1406463950630564
0.081,-0.09481642660038074
0.0815,-0.016373711562924116
0.082,0.05855897638736406
0.0825,0.10459413219801267
0.083,0.12471804836242457
0.0835,0.12830324094751255
0.084,0.10746639454631474
0.0845,0.05017903425962431
0.085,-0.0287563038321167
0.0855,-0.08740183770163837
0.08600000000000001,-0.09429466425106514
0.08650000000000001,-0.059473016746058795
0.08700000000000001,-0.025005691027337636
0.08750000000000001,-0.02806719692448792
0.088,-0.06836210304929664
0.0885,-0.10388993219901897
0.089,-0.08549754535601152
0.0895,-0.008484817484000661
0.09,0.07195914682350647
0.0905,0.08875284315049461
0.091,0.02995308806479033
0.0915,-0.0475523140065713
0.092,-0.07310506181853214
0.0925,-0.027708332867200043
0.093,0.044657627144519485
0.0935,0.08484860313684457
0.094,0.07318035385138887
0.0945,0.03659597816655166
0.095,0.007541259412291742
0.0955,-0.011653913040328378
0.096,-0.03486867873639059
0.0965,-0.05326028163706806
0.097,-0.03297185697223004
0.0975,0.040530213094178535
0.098,0.13119430121307757
0.0985,0.1799875478684365
0.099,0.16194781273292194
0.0995,0.10879035505361083
0.1,0.07273175751363846
0.1005,0.07087061305280312
0.101,0.07293898167260282
0.1015,0.04699655490110741
0.10200000000000001,0.00473350611568971
0.10250000000000001,-0.013908141495088015
0.10300000000000001,0.0031197870866890897
0.10350000000000001,0.01875756567649577
0.10400000000000001,-0.008464028466683773
0.1045,-0.0682917937336662
0.105,-0.10291273020332259
0.1055,-0.07080453564814967
0.106,0.00421528122988413
0.1065,0.05534615847594454
0.107,0.03765186951506203
0.1075,-0.0349020175749674
0.108,-0.10855920730667946
0.1085,-0.13634843338881888
0.109,-0.10923675859632079
0.1095,-0.05330275157343181
0.11,-0.006619479159100292
0.1105,0.0025822622872642984
0.111,-0.027785617702248883
0.1115,-0.064981331543177
0.112,-0.05968806443107398
0.1125,0.006788971476405841
0.113,0.09238479782600802
0.1135,0.12398431155538364
0.114,0.06386674053399048
0.1145,-0.052504189716095884
0.115,-0.14493796451339078
0.1155,-0.1585564511266604
0.116,-0.10836569102115295
0.1165,-0.05177866820479188
0.117,-0.020255778634935818
0.11750000000000001,0.009049310501658867
0.11800000000000001,0.0703711787635867
0.11850000000000001,0.15386340889734965
0.11900000000000001,0.20790080063915187
0.11950000000000001,0.19356854052626865
0.12,0.1258496025950626
0.1205,0.05742392209576708
0.121,0.02584046211148753
0.1215,0.02090529343865245
0.122,0.004121253142197787
0.1225,-0.04344133231739587
0.123,-0.09526901913743259
0.1235,-0.1014867128367353
0.124,-0.03838801337764701
0.1245,0.062285187186929894
0.125,0.13611561684921103
0.1255,0.14102387456415777
0.126,0.08767947310160668
0.1265,0.016955202289988407
0.127,-0.04054261345047141
0.1275,-0.07580488706437556
0.128,-0.08605771115870378
0.1285,-0.06623056955718673
0.129,-0.0172765036693517
0.1295,0.045352506224678776
0.13,0.09489591055029764
0.1305,0.10764911149620979
0.131,0.08079164201956299
0.1315,0.035693079604464294
0.132,-0.0036391855582302785
0.1325,-0.03351653020321477
0.133,-0.06334587313572826
0.1335,-0.08963373086464593
0.134,-0.09207877642785474
0.1345,-0.058307760671684555
0.135,-0.0009362518956680822
0.1355,0.05374323071956999
0.136,0.08462819102539715
0.1365,0.08105151776102834
0.137,0.04233607645778447
0.1375,-0.01675601789114281
0.138,-0.06485717251116119
0.1385,-0.0721020368492792
0.139,-0.03874487614066471
0.1395,-0.001695261371739614
0.14,0.001769148778156062
0.1405,-0.018525224527744733
0.14100000000000001,-0.010408245358338956
0.14150000000000001,0.05569416566818126
0.14200000000000002,0.1410851183064378
0.14250000000000002,0.17825758085872023
0.14300000000000002,0.1482151369527309
0.14350000000000002,0.09586017783718272
0.14400000000000002,0.06825996318983062
0.1445,0.05915448035588968
0.145,0.026652253718866092
0.1455,-0.043473749483941684
0.146,-0.10895217293219565
0.1465,-0.11389412669468106
0.147,-0.054424367673021286
0.1475,0.011974274209953652
0.148,0.026478812512634085
0.1485,-0.011416960370359285
0.149,-0.05068938202211322
0.1495,-0.04832899821329249
0.15,-0.013181148671760061
0.1505,0.00940578396570983
0.151,-0.009335430995319185
0.1515,-0.0492383276656762
0.152,-0.06375565024330496
0.1525,-0.03101385757605248
0.153,0.023645895394612378
0.1535,0.05709733269990501
0.154,0.05537153610631598
0.1545,0.04355678004114587
0.155,0.045473525479436804
0.1555,0.04443604627007269
0.156,0.0025749799408707023
0.1565,-0.08030332388724087
0.157,-0.1478761067136226
0.1575,-0.1394898907646493
0.158,-0.05153541150285804
0.1585,0.061074747035297916
0.159,0.13547104583499228
0.1595,0.1455571505267423
0.16,0.1064400823216366
0.1605,0.04866725594204398
0.161,-0.008438014755272099
0.1615,-0.061334878893221347
0.162,-0.10481119548295291
0.1625,-0.1195061162980335
0.163,-0.08887250301176053
0.1635,-0.027456768232291207
0.164,0.02400680191676361
0.1645,0.03966059270376545
0.165,0.03311455734640098
0.1655,0.03362166084271563
0.166,0.05082904124466774
0.1665,0.07452347723210319
0.167,0.09822587155878373
0.1675,0.126656217665477
0.168,0.16062595713287725
0.1685,0.1851284807838414
0.169,0.17686622178726985
0.1695,0.12357810659116836
0.17,0.038386840600921436
0.1705,-0.04264464239545329
0.171,-0.08064401364013216
0.1715,-0.06029849460699434
0.17200000000000001,-0.0018746056924489763
0.17250000000000001,0.05578789896821726
0.17300000000000001,0.0879376121726279
0.17350000000000002,0.09681149105792426
0.17400000000000002,0.09090862195921191
0.17450000000000002,0.061293460077652344
0.17500000000000002,-0.00847382304540042
0.17550000000000002,-0.10776876253479904
0.176,-0.18772465164756613
0.1765,-0.19894489617527514
0.177,-0.14159342771071443
0.1775,-0.06866950435492804
0.178,-0.03455945493989376
0.1785,-0.04546541187260957
0.179,-0.06480746111071091
0.1795,-0.06007378351740915
0.18,-0.03351302419692452
0.1805,-0.007957306653550732
0.181,0.0053052458547420585
0.1815,0.015262659254368734
0.182,0.029303855982521682
0.1825,0.03302540315336063
0.183,0.004962940526009006
0.1835,-0.04468399495190239
0.184,-0.0643957254014297
0.1845,-0.010501169817646252
0.185,0.09354518052997231
0.1855,0.1662433146846765
0.186,0.14599015215551064
0.1865,0.05061088018148668
0.187,-0.044125314341560105
0.1875,-0.07272409058575266
0.188,-0.02234623638574703
0.1885,0.07530816267244896
0.189,0.17268189039568488
0.1895,0.22328263512594332
0.19,0.19031594211056863
0.1905,0.06915805920915113
0.191,-0.08583695673897489
0.1915,-0.17677647376066236
0.192,-0.135347602147015
0.1925,0.009265781785730478
0.193,0.14667629293631987
0.1935,0.17988472968956248
0.194,0.10550831450131276
0.1945,0.0035771835967925558
0.195,-0.04343244528734447
0.1955,-0.018741095382114985
0.196,0.030459548334909124
0.1965,0.049042446048839866
0.197,0.025405492173811592
0.1975,-0.006173432535990116
0.198,-0.007453462227320189
0.1985,0.023141865053433006
0.199,0.05166712407633545
0.1995,0.04615540739014248
0.2,0.00833995015229235
0.2005,-0.032540313896488635
0.201,-0.05344119288724443
0.2015,-0.05873341066591971
0.202,-0.0661724967721992
0.2025,-0.080150978481667
0.203,-0.08822156331784194
0.20350000000000001,-0.08007783698352729
0.20400000000000001,-0.05862465414142113
0.20450000000000002,-0.033235061721229114
0.20500000000000002,-0.013355978313749243
0.20550000000000002,-0.008668401436140043
0.20600000000000002,-0.022491851901304333
0.20650000000000002,-0.04082254808087116
0.20700000000000002,-0.038737541354814525
0.20750000000000002,-0.005375301177705674
0.20800000000000002,0.04291087846137139
0.2085,0.08058604809471266
0.209,0.09988592995185504
0.2095,0.11261957874413989
0.21,0.12659602908549925
0.2105,0.12810380326749385
0.211,0.09342310021753374
0.2115,0.018926001074865473
0.212,-0.062311314319017194
0.2125,-0.0996427151588906
0.213,-0.06876803802522474
0.2135,-0.001082899043102839
0.214,0.03549301621993804
0.2145,-0.004618366584373116
0.215,-0.09888116830338546
0.2155,-0.17174664120327898
0.216,-0.15934664607464097
0.2165,-0.06109107978290612
0.217,0.06691111487548144
0.2175,0.1587956456185366
0.218,0.17977832925842474
0.2185,0.14009023034656815
0.219,0.08525120925713693
0.2195,0.0640636074382756
0.22,0.08774435054896085
0.2205,0.11993024567614297
0.221,0.11699153955583727
0.2215,0.07647680851378565
0.222,0.038595207657839914
0.2225,0.04276431520016881
0.223,0.08743261871682968
0.2235,0.13020678930486126
0.224,0.12630112556666256
0.2245,0.06992242090058413
0.225,-0.0018523026345793397
0.2255,-0.046416835178528314
0.226,-0.05292129448054285
0.2265,-0.040882763740486106
0.227,-0.03019385865203278
0.2275,-0.023634312975487945
0.228,-0.017844401874754518
0.2285,-0.018227386992994213
0.229,-0.03383816566784147
0.2295,-0.06041543249144361
0.23,-0.07583864290454342
0.2305,-0.05759546723005061
0.231,-0.006809891075029578
0.2315,0.04741015061453459
0.232,0.07206360651205655
0.2325,0.058657961616703586
0.233,0.02440674784039211
0.2335,-0.011217186848124344
0.234,-0.042244675453864865
0.23450000000000001,-0.06901223368710915
0.23500000000000001,-0.08732711525336458
0.23550000000000001,-0.09329963657965848
0.23600000000000002,-0.09301870926415835
0.23650000000000002,-0.09489643150808362
0.23700000000000002,-0.0906668582076358
0.23750000000000002,-0.057776558842623456
0.23800000000000002,0.007768331780165807
0.23850000000000002,0.0693060582264735
0.23900000000000002,0.07783278392965129
0.23950000000000002,0.024951749520323786
0.24,-0.043435825717526244
0.2405,-0.06909804165888433
0.241,-0.031271671248943644
0.2415,0.0412341028149162
0.242,0.09507433190686294
0.2425,0.08969181117757723
0.243,0.026702310420042473
0.2435,-0.04470405237128627
0.244,-0.05856976191199495
0.2445,0.013939929188188614
0.245,0.13396858276178092
0.2455,0.22508478693263967
0.246,0.24089218201951493
0.2465,0.20185971892336663
0.247,0.1633425707104853
0.2475,0.15117839636128094
0.248,0.13549920287441053
0.2485,0.07003523979416203
0.249,-0.04756338308891492
0.2495,-0.15967278838347185
0.25,-0.19314496250623936
0.2505,-0.11995062620292117
0.251,0.020499262899924174
0.2515,0.15049896542696667
0.252,0.20391129337922675
0.2525,0.1605594317696474
0.253,0.052062988517083054
0.2535,-0.05853094007509825
0.254,-0.11729949536022936
0.2545,-0.11885729391860429
0.255,-0.10725334446112612
0.2555,-0.12615894380736653
0.256,-0.16497756399520797
0.2565,-0.165428080860546
0.257,-0.08873242287062844
0.2575,0.03215413136016651
0.258,0.11656480959410002
0.2585,0.10966786026635461
0.259,0.029132151904240594
0.2595,-0.05484941441940186
0.26,-0.08027498436176296
0.2605,-0.03863174428168749
0.261,0.03052823780737332
0.2615,0.08198832962881863
0.262,0.09937950573895449
0.2625,0.09409749066224153
0.263,0.08230077263407244
0.2635,0.07029917010751886
0.264,0.058575284502926046
0.2645,0.05068426255132438
0.265,0.05353336113679909
0.2655,0.07053388115247658
0.266,0.09592259511540752
0.2665,0.11459185493152597
0.267,0.10812089952426061
0.2675,0.06705082438598543
0.268,0.004475751688530308
0.2685,-0.04353918805517362
0.269,-0.04133967057524709
0.2695,0.014461876402972876
0.27,0.08629209461015765
0.2705,0.12054633762683134
0.271,0.08546096610558987
0.2715,-0.0055799423059120536
0.272,-0.1016313019585115
0.2725,-0.14959460452076334
0.273,-0.13087748924364245
0.2735,-0.06991853857547863
0.274,-0.011476347569872454
0.2745,0.012903657902535937
0.275,0.005583953633274337
0.2755,-0.004909322888354092
0.276,0.005875899054361209
0.2765,0.03596880687636318
0.277,0.06462363223108172
0.2775,0.07570926774915673
0.278,0.06827213128833244
0.2785,0.04906454636433567
0.279,0.02483608179708212
0.2795,0.004534315962657054
0.28,-0.0006570704369070045
0.2805,0.00830560655354371
0.281,0.004657970847726254
0.28150000000000003,-0.047856397797770726
0.28200000000000003,-0.15200845350742176
0.28250000000000003,-0.2545935999677662
0.28300000000000003,-0.2797816156735655
0.28350000000000003,-0.19190826318584608
0.28400000000000003,-0.02832536337973766
0.28450000000000003,0.1243470286548782
0.28500000000000003,0.18757647939212704
0.28550000000000003,0.14247378657421142
0.28600000000000003,0.04470127962603892
0.28650000000000003,-0.014060294110414361
0.28700000000000003,0.01821746412513668
0.28750000000000003,0.10415923423118864
0.28800000000000003,0.15118588947684375
0.2885,0.10334915056035547
0.289,-0.0031933986529509052
0.2895,-0.07426898809888932
0.29,-0.041812905168898525
0.2905,0.07870175347237436
0.291,0.20113208016756542
0.2915,0.23757255603420768
0.292,0.165999988982735
0.2925,0.04190043345781692
0.293,-0.05175046900658068
0.2935,-0.0695284401453489
0.294,-0.027626601245457107
0.2945,0.027160177993948795
0.295,0.06214683677757917
0.2955,0.06909078550770908
0.296,0.04677823831141989
0.2965,-0.0006613092751485659
0.297,-0.04633469157685933
0.2975,-0.046776782677697554
0.298,0.017382754600316522
0.2985,0.11244237954276
0.299,0.17129684286576136
0.2995,0.14444528998323364
0.3,0.03941793999527705
0.3005,-0.0792983898918431
0.301,-0.1309718252621787
0.3015,-0.07620639211936812
0.302,0.04923271121782792
0.3025,0.15683486312756312
0.303,0.17384560002731697
0.3035,0.10030511686197591
0.304,0.000665790747543098
0.3045,-0.06006176311114063
0.305,-0.07007960005206941
0.3055,-0.0654400109135541
0.306,-0.08091627590011922
0.3065,-0.11217359612065408
0.307,-0.12472598068782767
0.3075,-0.09297105710840482
0.308,-0.025064748031235064
0.3085,0.04483146221570748
0.309,0.07810457390928933
0.3095,0.05102232852558096
0.31,-0.025351858429816236
0.3105,-0.09484130399037352
0.311,-0.08467717837929037
0.3115,0.02836887445609606
0.312,0.17462466847964492
0.3125,0.23350745498707998
0.313,0.13941874072958646
0.3135,-0.050539979559566024
0.314,-0.20129755602799648
0.3145,-0.21651751594896043
0.315,-0.11366715509513148
0.3155,0.00826284894536667
0.316,0.06465439260996111
0.3165,0.049425569235175534
0.317,0.018779682173159385
0.3175,0.025255220625287726
0.318,0.06875118950233937
0.3185,0.10724069163986634
0.319,0.11107939834786251
0.3195,0.09717636304786952
0.32,0.09985208490442521
0.3205,0.11853992836085117
0.321,0.11902338698306716
0.3215,0.08636752042263832
0.322,0.047091857023285506
0.3225,0.027370242589244267
0.323,0.015405476637640622
0.3235,-0.013868442754490203
0.324,-0.05355586302694516
0.3245,-0.06950754880887658
0.325,-0.04455605281722981
0.3255,0.00447656294464224
0.326,0.05216269230562932
0.3265,0.08370649441298929
0.327,0.08587601749161126
0.3275,0.0434351021435661
0.328,-0.03842265204652798
0.3285,-0.11703180091295802
0.329,-0.1360416102700283
0.3295,-0.07657394747160422
0.33,0.01699302128105805
0.3305,0.0717657823697676
0.331,0.05348176504279655
0.3315,-0.003968048198648877
0.332,-0.03833833145103651
0.3325,-0.019551417266378247
0.333,0.034330382930975616
0.3335,0.08556887052820604
0.334,0.10386748007993654
0.3345,0.0749141732958403
0.335,0.006901996486209084
0.3355,-0.06389395682942998
0.336,-0.089174814495174
0.3365,-0.04665738892384445
0.337,0.036073852149918394
0.3375,0.10177335452717863
0.338,0.10846296212338845
0.3385,0.056483933252248056
0.339,-0.0149041617378529
0.3395,-0.04953737343565901
0.34,-0.011021040312751074
0.3405,0.0793644737591987
0.341,0.14634968297446088
0.3415,0.12681787671952344
0.342,0.04066823323174936
0.3425,-0.02163668951229229
0.343,0.003456101660980697
0.3435,0.07952794067732082
0.34400000000000003,0.1128414502900566
0.34450000000000003,0.06066257979853554
0.34500000000000003,-0.024990597229536338
0.34550000000000003,-0.06339749928766604
0.34600000000000003,-0.036532015572850574
0.34650000000000003,-0.0038989988803216705
0.34700000000000003,-0.03096478048733888
0.34750000000000003,-0.11186608656585671
0.34800000000000003,-0.170463318675944
0.34850000000000003,-0.1391693266695698
0.34900000000000003,-0.0291033867737987
0.34950000000000003,0.0837021931492124
0.35000000000000003,0.1359304121721066
0.35050000000000003,0.13237477721796423
0.35100000000000003,0.1240846460492597
0.35150000000000003,0.1387625843616296
0.352,0.1440023572494891
0.3525,0.0885511769356813
0.353,-0.02514900173055717
0.3535,-0.12667907758992725
0.354,-0.14352565750981675
0.3545,-0.07218801407650366
0.355,0.023965425611041376
0.3555,0.08083623104075753
0.356,0.08790759944915225
0.3565,0.07998962521648957
0.357,0.0880747305022897
0.3575,0.10579962142466555
0.358,0.10032280822016783
0.3585,0.04968206711227416
0.359,-0.030726585893294352
0.3595,-0.09555353942597074
0.36,-0.10436405699754239
0.3605,-0.05412553602496663
0.361,0.01849624375327735
0.3615,0.06524934505078345
0.362,0.06167094363665849
0.3625,0.025554433477064827
0.363,0.0028625590452617394
0.3635,0.023735210535083828
0.364,0.06587934971237809
0.3645,0.0725950461114169
0.365,0.017011832629611152
0.3655,-0.06107437591110266
0.366,-0.09506843481325884
0.3665,-0.06104348361356164
0.367,0.006160587223028736
0.3675,0.05767034304789445
0.368,0.07090835653275926
0.3685,0.0481939477347961
0.369,0.0020158309702125454
0.3695,-0.04256080903807378
0.37,-0.045451330019794865
0.3705,0.02005859197687554
0.371,0.12439110675351839
0.3715,0.18485252970403565
0.372,0.13766763134783155
0.3725,0.007902407679139172
0.373,-0.11067813784741608
0.3735,-0.14721649402233863
0.374,-0.1091180545225042
0.3745,-0.047901333893447896
0.375,0.003532510107005347
0.3755,0.04543074270916205
0.376,0.08170150392043385
0.3765,0.10040786157178938
0.377,0.08606542341581892
0.3775,0.04056183949593056
0.378,-0.011650030270271543
0.3785,-0.03671031223005977
0.379,-0.014618173650167769
0.3795,0.04004070987856924
0.38,0.07949379409747576
0.3805,0.05624441426303778
0.381,-0.034039280560467344
0.3815,-0.14017003997511068
0.382,-0.18792110610220839
0.3825,-0.13146988656469796
0.383,0.014212789998385534
0.3835,0.1792051977049567
0.384,0.27837139126295385
0.3845,0.26515514022915293
0.385,0.16602784060044176
0.3855,0.061103416141696155
0.386,0.014584312990510946
0.3865,0.01822398494171032
0.387,0.013386805645762665
0.3875,-0.029204602165076816
0.388,-0.068177629841431
0.3885,-0.0404226691281174
0.389,0.0580718976616614
0.3895,0.15275149963194934
0.39,0.15510678174617232
0.3905,0.04768281041737433
0.391,-0.09374059556853703
0.3915,-0.1642458164638564
0.392,-0.11816083247657579
0.3925,0.0030905493180908047
0.393,0.11800803354144343
0.3935,0.1654720604513659
0.394,0.1288100728982906
0.3945,0.03217523438416966
0.395,-0.06983565956290369
0.3955,-0.11615616327925987
0.396,-0.08043852867646997
0.3965,0.004139352820758091
0.397,0.07096671312074175
0.3975,0.07611211338173528
0.398,0.028456709590555778
0.3985,-0.028344897037171045
0.399,-0.05585889267555069
0.3995,-0.04717266466709401
0.4,-0.022589756071015873
0.4005,-0.004315936799433751
0.401,0.002289720737391837
0.4015,0.004320544987401367
0.402,0.005684588615403859
0.4025,0.0020068992447293318
0.403,-0.009585996193689588
0.4035,-0.02167968903788389
0.404,-0.02338042460359025
0.4045,-0.015063123885184581
0.405,-0.008545728352918723
0.4055,-0.008694988937350928
0.406,-0.00203270551116408
0.40650000000000003,0.03000294119251633
0.40700000000000003,0.09053006091931569
0.40750000000000003,0.16157113862269937
0.40800000000000003,0.21145432917380652
0.40850000000000003,0.20859113698281456
0.40900000000000003,0.14225707464369713
0.40950000000000003,0.03874087404963476
0.41000000000000003,-0.04782857914588118
0.41050000000000003,-0.07016149923124002
0.41100000000000003,-0.02321801090855812
0.41150000000000003,0.04901063301259752
0.41200000000000003,0.08871714722992641
0.41250000000000003,0.07684239549996137
0.41300000000000003,0.0472502777057918
0.41350000000000003,0.040830124349645336
0.41400000000000003,0.053816057419084976
0.41450000000000004,0.04497783348530143
0.41500000000000004,-0.009697260143142074
0.41550000000000004,-0.08328261749742294
0.41600000000000004,-0.12290369615864694
0.4165,-0.10100676984500016
0.417,-0.03550570412243475
0.4175,0.03431739368016381
0.418,0.07781133354291533
0.4185,0.07886988914899809
0.419,0.03219820715053071
0.4195,-0.04662943477965204
0.42,-0.10977199329452486
0.4205,-0.09913775945255252
0.421,-0.0013487595340581342
0.4215,0.12253060624920176
0.422,0.1838229340161725
0.4225,0.15170242851773777
0.423,0.07883331193918375
0.4235,0.0353306232011642
0.424,0.03457801630769948
0.4245,0.03788981605858189
0.425,0.01467866317671444
0.4255,-0.02789267321980806
0.426,-0.06985896794228179
0.4265,-0.10492263284859688
0.427,-0.13192039269629996
0.4275,-0.1380919752273964
0.428,-0.10884427523141228
0.4285,-0.05176026611941686
0.429,0.0015144645362030144
0.4295,0.022820845897743233
0.43,0.013777975293877644
0.4305,0.002296907167662097
0.431,0.016617573581686064
0.4315,0.06329358154485465
0.432,0.12073461428280596
0.4325,0.1493334416255878
0.433,0.12152692776974777
0.4335,0.05492828394514099
0.434,0.007917899800666844
0.4345,0.027851865531909537
0.435,0.10248479088544457
0.4355,0.16875965004886295
0.436,0.16955029583358047
0.4365,0.1001894479057375
0.437,0.006359290972463181
0.4375,-0.053812680001797016
0.438,-0.048218739583558996
0.4385,0.012291497772424208
0.439,0.08374457279873607
0.4395,0.11929606985704179
0.44,0.0984369288035241
0.4405,0.03374521010461402
0.441,-0.041249178003150276
0.4415,-0.0880928344374944
0.442,-0.08214169315197437
0.4425,-0.029803542744839488
0.443,0.035965604314427496
0.4435,0.08290551112628097
0.444,0.09813729910746988
0.4445,0.0829636823865657
0.445,0.04510795674735631
0.4455,0.0010606869989045076
0.446,-0.027742148859025623
0.4465,-0.031200786468907723
0.447,-0.0182548291681961
0.4475,-0.002789292648863625
0.448,0.013389451229532369
0.4485,0.03564242415100537
0.449,0.056299382404499235
0.4495,0.05028814790686354
0.45,-0.0006346287686370082
0.4505,-0.07916961812751683
0.451,-0.13455362613382899
0.4515,-0.12373264720466307
0.452,-0.05539433770801693
0.4525,0.01437119730197257
0.453,0.037248092025631854
0.4535,0.017466538653975305
0.454,-0.004460458249290667
0.4545,-0.002780163117081272
0.455,0.011649750805005918
0.4555,0.01605612822922819
0.456,0.007063849784783607
0.4565,0.0017190210521499348
0.457,0.014242774816490385
0.4575,0.0391715434078004
0.458,0.05702948164680717
0.4585,0.05182149134030711
0.459,0.023101986651321085
0.4595,-0.014686413583836794
0.46,-0.04483456798965898
0.4605,-0.061705621624741115
0.461,-0.06694592699378124
0.4615,-0.05326721374893584
0.462,-0.00587308311840253
0.4625,0.07334718085510177
0.463,0.15465711399569296
0.4635,0.20199325640402568
0.464,0.2009130394663558
0.4645,0.1645158676304089
0.465,0.12034913123458373
0.4655,0.09399270170257316
0.466,0.09675894378547678
0.4665,0.1205283041552601
0.467,0.1422899110213574
0.4675,0.13579462550717109
0.468,0.08540165213937362
0.4685,0.00011133436297161483
0.46900000000000003,-0.08067155905392828
0.46950000000000003,-0.10706385513478565
0.47000000000000003,-0.06175561413210304
0.47050000000000003,0.014707230400152546
0.47100000000000003,0.054260640195280554
0.47150000000000003,0.025263557459225615
0.47200000000000003,-0.038073290922509245
0.47250000000000003,-0.07459169447597214
0.47300000000000003,-0.05874067623137553
0.47350000000000003,-0.018186026128150897
0.47400000000000003,0.004550960779169496
0.47450000000000003,-0.0037563567770198085
0.47500000000000003,-0.02279022583962239
0.47550000000000003,-0.02963638980154005
0.47600000000000003,-0.025200605896619706
0.47650000000000003,-0.026804123155420273
0.47700000000000004,-0.038349668828347984
0.47750000000000004,-0.03818347998677474
0.47800000000000004,-0.005139271095256618
0.47850000000000004,0.048444399938566605
0.47900000000000004,0.08408638110867037
0.47950000000000004,0.08097018954490261
0.48,0.058386483634923304
0.4805,0.044380902303874314
0.481,0.03480922455995676
0.4815,0.002955176859378201
0.482,-0.0530954073638693
0.4825,-0.0934480544145156
0.483,-0.0767019124447831
0.4835,-0.010617548767434754
0.484,0.04461371205604989
0.4845,0.027312135519348836
0.485,-0.06594724966327094
0.4855,-0.16780756603132635
0.486,-0.1895656199407586
0.4865,-0.09004568045564566
0.487,0.09205226264754185
0.4875,0.2619534221621841
0.488,0.3294547049979679
0.4885,0.2684493821597101
0.489,0.13334234709602094
0.4895,0.013738670130012436
0.49,-0.03628368481627098
0.4905,-0.026809672171024604
0.491,0.0029847506636925753
0.4915,0.03198748163130375
0.492,0.061953042632021324
0.4925,0.09098590274372986
0.493,0.10356477332044754
0.4935,0.08957299863396026
0.494,0.05973392382849671
0.4945,0.03380448408181647
0.495,0.01883238793316465
0.4955,0.007090378873770436
0.496,-0.005395836318501941
0.4965,-0.008460575191437976
0.497,0.004141402711864911
0.4975,0.010740805277108204
0.498,-0.024634554705802152
0.4985,-0.10382933288237614
0.499,-0.1732176685147046
0.4995,-0.16803806075577557
0.5,-0.07671966980790795
0.5005000000000001,0.047600744882953704
0.501,0.13565126608723402
0.5015000000000001,0.1528066407958557
0.502,0.10889233118214005
0.5025000000000001,0.04054588945044901
0.503,-0.006107142759432417
0.5035000000000001,0.0043105101222021425
0.504,0.06643151020599988
0.5045000000000001,0.12563690055278143
0.505,0.12266434640229892
0.5055000000000001,0.05585922753406415
0.506,-0.013442905801528066
0.5065000000000001,-0.024624206609301157
0.507,0.022840089613833877
0.5075000000000001,0.07897579317150598
0.508,0.09993697917410854
0.5085000000000001,0.08333587838067749
0.509,0.054403108824820974
0.5095000000000001,0.033143846592007635
0.51,0.019896453055187245
0.5105000000000001,0.004862475221319067
0.511,-0.016672281991569088
0.5115000000000001,-0.04001317062475716
0.512,-0.05890710336124588
0.5125,-0.07338116619416747
0.513,-0.08630699075521
0.5135,-0.09335733750645811
0.514,-0.08209304328218624
0.5145,-0.04527451998987084
0.515,0.006032701646263564
0.5155,0.04587152503232665
0.516,0.051835306472469984
0.5165,0.023340152646863867
0.517,-0.014236789112262001
0.5175,-0.026584977930591468
0.518,-0.0012059227605117065
0.5185,0.036211258848186344
0.519,0.043145819990493724
0.5195,0.0029713227627548126
0.52,-0.05420844726901043
0.5205,-0.07530762701117617
0.521,-0.033203633523819095
0.5215,0.043111349295825406
0.522,0.09060137559912107
0.5225,0.07357438461481225
0.523,0.024206566183237223
0.5235,0.013318014518392922
0.524,0.07555099611596808
0.5245,0.16775131589064854
0.525,0.20798276824357076
0.5255,0.15619461714800462
0.526,0.05145548868347878
0.5265,-0.0305817250885897
0.527,-0.047218407645231775
0.5275,-0.011514480138869685
0.528,0.0386058095109712
0.5285,0.07475692648448838
0.529,0.08482024873663502
0.5295,0.06741319141900443
0.53,0.03511806451230297
0.5305,0.016502096675434338
0.531,0.034967247586008714
0.5315,0.07721723130594929
0.532,0.09638195072307706
0.5325,0.06101460214672893
0.533,-0.004789713801441391
0.5335,-0.044447836438698006
0.534,-0.03166274447962526
0.5345,0.0030185989290141234
0.535,0.013523948628980716
0.5355,-0.004860966049972774
0.536,-0.011991240309648571
0.5365,0.02600764037096196
0.537,0.09238352222868597
0.5375,0.1287833737303838
0.538,0.08468472731758757
0.5385,-0.036318230064430586
0.539,-0.16688888260610507
0.5395,-0.21704623409547305
0.54,-0.14744108723817692
0.5405,-0.011421163924456908
0.541,0.08794984009995993
0.5415,0.09159491717005648
0.542,0.03231322916088887
0.5425,-0.009633191475878166
0.543,0.009277856442313503
0.5435,0.05877721735646753
0.544,0.07543682634424762
0.5445,0.03124982305473631
0.545,-0.04021091567758033
0.5455,-0.0784188730961476
0.546,-0.05117763058910075
0.5465,0.01978727801036547
0.547,0.08076520088620404
0.5475,0.0904709495543704
0.548,0.04521542363910107
0.5485,-0.030504848174730998
0.549,-0.10608108430323895
0.5495,-0.15393099232874144
0.55,-0.14893969333453624
0.5505,-0.07974883088438724
0.551,0.02958851063767147
0.5515,0.12214505976934135
0.552,0.15143012332401648
0.5525,0.12327613496135631
0.553,0.08328891996876264
0.5535,0.06527803503794144
0.554,0.06674247645620406
0.5545,0.07067544361583197
0.555,0.06743211583081832
0.5555,0.05157912992141591
0.556,0.023200402250528024
0.5565,0.0059204149715808875
0.557,0.04258086756623208
0.5575,0.148016427002533
0.558,0.26896214381273503
0.5585,0.3129950277706736
0.559,0.23145686358398634
0.5595,0.07125547666044149
0.56,-0.0626240200289794
0.5605,-0.09910875273288838
0.561,-0.058205730125490074
0.5615,-0.02086188708563761
0.562,-0.04506143231817897
0.5625,-0.11215287348200503
0.5630000000000001,-0.15314133774903818
0.5635,-0.12197094294756211
0.5640000000000001,-0.03984399176269029
0.5645,0.028960612008113024
0.5650000000000001,0.040572980711081924
0.5655,0.010483336388148808
0.5660000000000001,-0.009761217568032127
0.5665,0.00923341345577308
0.5670000000000001,0.047214888818384364
0.5675,0.06460025166472498
0.5680000000000001,0.04770810727701672
0.5685,0.01520556775984603
0.5690000000000001,-0.012199687465203422
0.5695,-0.03321886807851723
0.5700000000000001,-0.05355379301200044
0.5705,-0.06524021871947204
0.5710000000000001,-0.05304719715686529
0.5715,-0.018847937445371256
0.5720000000000001,0.013829595561729156
0.5725,0.022765117159958662
0.5730000000000001,0.009178340666240183
0.5735,-0.003412298752140017
0.5740000000000001,0.007712673155396196
0.5745,0.03875089021037519
0.5750000000000001,0.05920666872915902
0.5755,0.04416207424608895
0.5760000000000001,0.003815906571876185
0.5765,-0.026553126250106165
0.577,-0.02228041899402953
0.5775,0.013551818037600418
0.578,0.06261589982646099
0.5785,0.10429492472040722
0.579,0.1151120098877389
0.5795,0.07701243789420083
0.58,0.00334698302565062
0.5805,-0.05281283913288815
0.581,-0.03701813594091047
0.5815,0.05358897623137904
0.582,0.16267706450383645
0.5825,0.22182499479686252
0.583,0.20146150903041432
0.5835,0.12279422039796431
0.584,0.03541848492944853
0.5845,-0.01483750691735199
0.585,-0.010662669339679886
0.5855,0.029480694656465245
0.586,0.06446875057484161
0.5865,0.057776419062216706
0.587,0.004311983472192121
0.5875,-0.0642495281160553
0.588,-0.10440824630364356
0.5885,-0.09443418197164805
0.589,-0.04736542443213296
0.5895,0.0012835826723797284
0.59,0.018769579796293633
0.5905,-0.0006874403439582882
0.591,-0.032056060182207156
0.5915,-0.04569223990553624
0.592,-0.03777993941769004
0.5925,-0.026380279823517355
0.593,-0.016827162225570985
0.5935,0.01390930198868813
0.594,0.08385609565929558
0.5945,0.16297352642857998
0.595,0.1857237110112933
0.5955,0.1181741173833747
0.596,0.00017844117067776326
0.5965,-0.09327815340747155
0.597,-0.12570012761245225
0.5975,-0.12018577374209186
0.598,-0.11183552969549469
0.5985,-0.09808982744585595
0.599,-0.04651342424732281
0.5995,0.053003157829098785
0.6,0.15365867207756076
0.6005,0.17984419348135341
0.601,0.10001776198672109
0.6015,-0.029063272203640002
0.602,-0.10471024830663112
0.6025,-0.07391529010990588
0.603,0.018872854313633922
0.6035,0.08333447710177527
0.604,0.07327303522988944
0.6045,0.01807830243331182
0.605,-0.02508198651743228
0.6055,-0.03224078426062783
0.606,-0.019713093381663955
0.6065,-0.003346052278263216
0.607,0.027730427288418104
0.6075,0.08788549376072026
0.608,0.15916924871538823
0.6085,0.19703830485842425
0.609,0.17300015193390433
0.6095,0.1017398971052388
0.61,0.026557273035601202
0.6105,-0.012938382762755815
0.611,-0.0023813933139001115
0.6115,0.04102612777596424
0.612,0.0769936686283762
0.6125,0.06915601532724545
0.613,0.016835375992805903
0.6135,-0.04039874693325891
0.614,-0.05666554420903955
0.6145,-0.021631782982943583
0.615,0.031011448447680154
0.6155,0.056646007687341834
0.616,0.04008523821102379
0.6165,0.0014802856021080182
0.617,-0.03244096585425471
0.6175,-0.05077042045281343
0.618,-0.05162884136563132
0.6185,-0.03154616975676636
0.619,0.004757674978298103
0.6195,0.033931596535907146
0.62,0.03031157010692089
0.6205,-0.005000330585441696
0.621,-0.03957407519800186
0.6215,-0.03822961284442992
0.622,0.005918463617366117
0.6225,0.06873514044989062
0.623,0.11755316453671819
0.6235,0.13264525494842364
0.624,0.1114236027542888
0.6245,0.061696706204791604
0.625,-0.00274295009651222
0.6255000000000001,-0.06195595582884704
0.626,-0.09235925634167479
0.6265000000000001,-0.07608231150999784
0.627,-0.01399816079660033
0.6275000000000001,0.06576730862276904
0.628,0.1159048977302141
0.6285000000000001,0.1004209432043105
0.629,0.02794008355844701
0.6295000000000001,-0.049491504762395624
0.63,-0.07914940122858591
0.6305000000000001,-0.04834189287979079
0.631,0.015763103640963592
0.6315000000000001,0.0723815762466636
0.632,0.08772918276285276
0.6325000000000001,0.0485038801770037
0.633,-0.02681158157218621
0.6335000000000001,-0.09588450068473914
0.634,-0.12651564760047734
0.6345000000000001,-0.12380273498634194
0.635,-0.11506382844235374
0.6355000000000001,-0.10732813261712386
0.636,-0.07119967412575791
0.6365000000000001,0.02220659107273714
0.637,0.15054320251845826
0.6375000000000001,0.24055669030385093
0.638,0.2313161949131462
0.6385000000000001,0.13626083144688234
0.639,0.03363863359954532
0.6395000000000001,-0.007453583955899186
0.64,0.012203289941877025
0.6405,0.034009029466983046
0.641,0.008671648315211992
0.6415,-0.05014731382228944
0.642,-0.07798824614244926
0.6425,-0.02588328075688581
0.643,0.08646397640322127
0.6435,0.18461343448847087
0.644,0.20170613706800522
0.6445,0.12629261973041925
0.645,0.003652308709892447
0.6455,-0.09344739874697187
0.646,-0.10307652394100142
0.6465,-0.013228035338282438
0.647,0.11832690915948506
0.6475,0.19569855468130634
0.648,0.1611457592870411
0.6485,0.047712744671800165
0.649,-0.050861193778138046
0.6495,-0.06571397607608276
0.65,-0.008835179152346752
0.6505,0.04959641730548447
0.651,0.052649835638105366
0.6515,0.005643879132059105
0.652,-0.041589793744996544
0.6525,-0.05471230225437683
0.653,-0.048964618909796566
0.6535,-0.0611684963435479
0.654,-0.09692521751870704
0.6545,-0.11768042798635853
0.655,-0.0832875065382091
0.6555,-0.00038167354045630895
0.656,0.08008666247680664
0.6565,0.1136063725021871
0.657,0.10223611605004809
0.6575,0.08029907523921294
0.658,0.06837186815376833
0.6585,0.052969111334399945
0.659,0.013731718192462274
0.6595,-0.03918501771065647
0.66,-0.06690986572799705
0.6605,-0.0432956612128127
0.661,0.01316611207136475
0.6615,0.055810692068371595
0.662,0.057747085220222316
0.6625,0.03769106822102771
0.663,0.03360955034079956
0.6635,0.05520935080032591
0.664,0.07281856747375316
0.6645,0.05405539422141153
0.665,-0.0002641002559129633
0.6655,-0.06246779959281335
0.666,-0.10819191747778258
0.6665,-0.12781500797713313
0.667,-0.1174436733230133
0.6675,-0.07896195886848642
0.668,-0.029295600741642246
0.6685,0.009809622418122369
0.669,0.03879170403283001
0.6695,0.08210859957385055
0.67,0.14979911078256264
0.6705,0.20602605999983492
0.671,0.19649893668421015
0.6715,0.11373957180749701
0.672,0.020566816576287335
0.6725,-0.007392745045013317
0.673,0.037755155371970064
0.6735,0.08536895380926547
0.674,0.06300451754636349
0.6745,-0.02396041257508185
0.675,-0.10070173217339147
0.6755,-0.10574741949602265
0.676,-0.04837411354088427
0.6765,0.01823775892336827
0.677,0.060777028708552165
0.6775,0.08849587037602244
0.678,0.12230951582178873
0.6785,0.15783717994960136
0.679,0.16339248362186556
0.6795,0.1126469859027219
0.68,0.018923202992831758
0.6805,-0.06632070729002418
0.681,-0.09578776676824996
0.6815,-0.06926493601496583
0.682,-0.0313758341445795
0.6825,-0.025503144421677348
0.683,-0.05208002366270629
0.6835,-0.07292225960301349
0.684,-0.05392672977970833
0.6845,-0.00040434748707216406
0.685,0.04961827787399825
0.6855,0.06298690445626436
0.686,0.04000178197238598
0.6865,0.010391182946685342
0.687,0.00624377124864193
0.6875,0.03510227003349156
0.6880000000000001,0.07200569130705782
0.6885,0.0787440487325395
0.6890000000000001,0.03803018320179494
0.6895,-0.028050981966431694
0.6900000000000001,-0.07362987678027887
0.6905,-0.0640077879635826
0.6910000000000001,-0.0011081855758815341
0.6915,0.07707861472470963
0.6920000000000001,0.12155888331355157
0.6925,0.10655346436328442
0.6930000000000001,0.048855463288672574
0.6935,-0.005695272079750091
0.6940000000000001,-0.022066813306617864
0.6945,-0.008920964208488032
0.6950000000000001,-0.00816790582773023
0.6955,-0.04342520793324695
0.6960000000000001,-0.08500928359502391
0.6965,-0.08353568510478639
0.6970000000000001,-0.036502337887725465
0.6975,0.0021613845346574907
0.6980000000000001,-0.013075312516423274
0.6985,-0.06480811739476258
0.6990000000000001,-0.09499095074515665
0.6995,-0.06670324696454459
0.7000000000000001,0.007941795709575934
0.7005,0.08635482876995945
0.7010000000000001,0.12511653946720985
0.7015,0.10123115449400699
0.7020000000000001,0.027565298839756502
0.7025,-0.045477091409584
0.7030000000000001,-0.05950578723872295
0.7035,0.0009967550323988442
0.704,0.08629271852420554
0.7045,0.12440549019536395
0.705,0.0919098725174938
0.7055,0.032744824722574624
0.706,0.005694773147493833
0.7065,0.026758596047930804
0.707,0.06850753857106884
0.7075,0.10119025007441514
0.708,0.11727813082738742
0.7085,0.11846914803238957
0.709,0.10046680947976148
0.7095,0.06585675769743912
0.71,0.040378893310880105
0.7105,0.052550303785540056
0.711,0.09234602599819132
0.7115,0.10832789407853441
0.712,0.06049255361897603
0.7125,-0.030138282477200552
0.713,-0.09795617194211519
0.7135,-0.09898969140831354
0.714,-0.050341015064704786
0.7145,-0.0014116848335124508
0.715,0.021750385864047095
0.7155,0.03196309577800452
0.716,0.045581515773805176
0.7165,0.04769813494341466
0.717,0.004370328021665183
0.7175,-0.09131901886010135
0.718,-0.19562383996437954
0.7185,-0.2447840444870823
0.719,-0.20743543509318502
0.7195,-0.10351443247228015
0.72,0.018572670588301105
0.7205,0.11060319925083249
0.721,0.13964805175668502
0.7215,0.10002269119498305
0.722,0.02246697406340216
0.7225,-0.037019734040961955
0.723,-0.032807116819425435
0.7235,0.03442505272597431
0.724,0.1164417682462699
0.7245,0.1597785396757785
0.725,0.15135447593086593
0.7255,0.11764467024214685
0.726,0.08422664761613625
0.7265,0.050459272417624434
0.727,0.007492493887529939
0.7275,-0.031025325082514876
0.728,-0.031066889417325244
0.7285,0.022446336391786528
0.729,0.09391896142832382
0.7295,0.11867673986510793
0.73,0.06507089705136239
0.7305,-0.03005965666759703
0.731,-0.09439559826734771
0.7315,-0.08400860407207986
0.732,-0.011342768517271475
0.7325,0.07802403854301522
0.733,0.14206148943726302
0.7335,0.15909245519568418
0.734,0.12535732984348322
0.7345,0.04935177902547587
0.735,-0.04958819491651479
0.7355,-0.14188348635111026
0.736,-0.1931118361178127
0.7365,-0.17650936838634815
0.737,-0.08913518936881445
0.7375,0.03899142616335997
0.738,0.15478436074848897
0.7385,0.208855723181675
0.739,0.1798448575577834
0.7395,0.08136755964166632
0.74,-0.04597411838397567
0.7405,-0.15062625767823493
0.741,-0.19093850995713121
0.7415,-0.15451135573880778
0.742,-0.06562990956080521
0.7425,0.026359574091352672
0.743,0.07411453812851306
0.7435,0.05893533114067748
0.744,0.00021335738529002293
0.7445,-0.05731370087952718
0.745,-0.07278749715258816
0.7455,-0.04105055569707772
0.746,-0.0017132375130498555
0.7465,-0.005175790643810267
0.747,-0.057704470229801304
0.7475,-0.10640622823504849
0.748,-0.0920854692897314
0.7485,-0.015731729265766534
0.749,0.060029061012135496
0.7495,0.07865777609012156
0.75,0.04733621238088405
0.7505000000000001,0.01871621314329814
0.751,0.026279527334029804
0.7515000000000001,0.056466838226744885
0.752,0.08168591201622706
0.7525000000000001,0.09489022298105454
0.753,0.1008531399973459
0.7535000000000001,0.09632371032479436
0.754,0.07946023131841554
0.7545000000000001,0.06509643752403935
0.755,0.06753685915128767
0.7555000000000001,0.07326482102737837
0.756,0.05421245600505142
0.7565000000000001,0.01432000540486
0.757,0.0036317281866756245
0.7575000000000001,0.06546562269430813
0.758,0.17024387133628832
0.7585000000000001,0.22274226869128477
0.759,0.15369116708586314
0.7595000000000001,0.0005529546836518994
0.76,-0.11875066015848623
0.7605000000000001,-0.1152996582795765
0.761,-0.004122276519792278
0.7615000000000001,0.12348753736506037
0.762,0.18196606630261564
0.7625000000000001,0.14574079594607425
0.763,0.05167811474144453
0.7635000000000001,-0.03149148765853094
0.764,-0.052457027498313394
0.7645000000000001,-0.020436315127955768
0.765,0.005047962754729676
0.7655000000000001,-0.018268170507033624
0.766,-0.06626033594388976
0.7665000000000001,-0.08094776569473101
0.767,-0.04216536096442169
0.7675000000000001,0.012230132558238054
0.768,0.034849274057252355
0.7685,0.018770037577825603
0.769,-0.0066283343095050245
0.7695,-0.01648582371416078
0.77,-0.015658294389871895
0.7705,-0.027222030023834422
0.771,-0.06447802953874573
0.7715,-0.11371959870621068
0.772,-0.14094541266640556
0.7725,-0.12119392967513237
0.773,-0.06924716588766135
0.7735,-0.035782335921836966
0.774,-0.05957381381704883
0.7745,-0.1208111043923019
0.775,-0.15014043461910806
0.7755,-0.09100193273040276
0.776,0.04280396116561197
0.7765,0.1699150215692553
0.777,0.2087204394777612
0.7775,0.15202823259478335
0.778,0.07337761488592556
0.7785,0.05106213242552777
0.779,0.08853480657504519
0.7795,0.11918956151552336
0.78,0.08495569156302013
0.7805,-0.0038476134956439093
0.781,-0.0840920681859324
0.7815,-0.10071331512536076
0.782,-0.05440055305629415
0.7825,-0.0026704012330432897
0.783,-0.010719927162988769
0.7835,-0.08482611001061816
0.784,-0.15244508716527844
0.7845,-0.12540829156971625
0.785,0.004712145695345468
0.7855,0.14297222024545142
0.786,0.178917125113927
0.7865,0.09847493552684762
0.787,-0.003231140076767747
0.7875,-0.01981291238000315
0.788,0.06835156863771874
0.7885,0.19119740065613225
0.789,0.2607203512891311
0.7895,0.23372434334271913
0.79,0.12426643084210909
0.7905,-0.014989778557125097
0.791,-0.11853639622390695
0.7915,-0.13807091553316359
0.792,-0.06913566470993186
0.7925,0.048312185231761486
0.793,0.15928159624276322
0.7935,0.22266059468229665
0.794,0.21663933415965284
0.7945,0.13701831302375167
0.795,0.008357091194880036
0.7955,-0.11048669794430974
0.796,-0.15578159023236304
0.7965,-0.10820057563366706
0.797,-0.009824221784265638
0.7975,0.07310542908495565
0.798,0.10120902568548742
0.7985,0.07586389233809773
0.799,0.017571554695139324
0.7995,-0.053195746934745394
0.8,-0.11739688948738375
0.8005,-0.1554338264960461
0.801,-0.15066255773188714
0.8015,-0.09556660927782311
0.802,-0.00018276419251504576
0.8025,0.1014510624834943
0.803,0.16046202672633036
0.8035,0.14154065682593808
0.804,0.05064240670831041
0.8045,-0.06357048013571956
0.805,-0.1398063849905797
0.8055,-0.14465612386963395
0.806,-0.09067622111655305
0.8065,-0.016158594468603592
0.807,0.04949076162731558
0.8075,0.0948750437919354
0.808,0.10914567827869723
0.8085,0.07631587030457751
0.809,-0.002704074431951204
0.8095,-0.09236658775041298
0.81,-0.1411072025358759
0.8105,-0.12329789882158626
0.811,-0.0622350496632091
0.8115,-0.010216478691589256
0.812,-0.003146105513141184
0.8125,-0.03055756999701864
0.8130000000000001,-0.04921716397783992
0.8135,-0.029224293907755952
0.8140000000000001,0.01235692030218007
0.8145,0.027514676159633294
0.8150000000000001,-0.009489037176560213
0.8155,-0.0668440574361654
0.8160000000000001,-0.07948771930956296
0.8165,-0.012480863606935705
0.8170000000000001,0.1013170937532673
0.8175,0.18774335527574684
0.8180000000000001,0.19507071085743205
0.8185,0.1360268373145111
0.8190000000000001,0.07158896793033503
0.8195,0.05050559780633675
0.8200000000000001,0.062350025386278596
0.8205,0.0549439398890484
0.8210000000000001,-0.00132335943975034
0.8215,-0.07564231291097334
0.8220000000000001,-0.10744177646121195
0.8225,-0.06707388116363
0.8230000000000001,0.020463404518913604
0.8235,0.10581165478208168
0.8240000000000001,0.15897102329910873
0.8245,0.1838968265938404
0.8250000000000001,0.20035464028930708
0.8255,0.21822198512879348
0.8260000000000001,0.22630802953181206
0.8265,0.19952137106583093
0.8270000000000001,0.11900255955153577
0.8275,-0.002859158671941614
0.8280000000000001,-0.11380466744161358
0.8285,-0.15412241422524545
0.8290000000000001,-0.11322060369398249
0.8295,-0.04713031946894647
0.8300000000000001,-0.025614392971398517
0.8305,-0.06530279840716356
0.8310000000000001,-0.12500564671721046
0.8315,-0.15838624323654096
0.8320000000000001,-0.15447689728640424
0.8325,-0.12990774917075387
0.833,-0.10130514728644648
0.8335,-0.07292921770495296
0.834,-0.03983289381036502
0.8345,0.0053472377143955275
0.835,0.06130462934843723
0.8355,0.10633366209260472
0.836,0.10656937317536566
0.8365,0.05039588444683078
0.837,-0.026179614616242016
0.8375,-0.06399057730116843
0.838,-0.03930475742430923
0.8385,0.011036777675170993
0.839,0.03327687822370792
0.8395,0.018606372003285358
0.84,0.007958130716494597
0.8405,0.03687651789373739
0.841,0.09038823017451342
0.8415,0.12081164010448368
0.842,0.10318894829756411
0.8425,0.05989525027953329
0.843,0.02813665566847723
0.8435,0.01655572434774028
0.844,0.003700686392223103
0.8445,-0.029532234779745356
0.845,-0.07615843897667672
0.8455,-0.1065602356936246
0.846,-0.09139771719118744
0.8465,-0.029980894874783646
0.847,0.040468196013169117
0.8475,0.0746713867577199
0.848,0.06345281041928721
0.8485,0.03884816646559
0.849,0.032504315789637216
0.8495,0.04140617080012328
0.85,0.04175277490370159
0.8505,0.02608354644700451
0.851,0.013656567220277926
0.8515,0.02451924219018399
0.852,0.052424914082547444
0.8525,0.0678514635948385
0.853,0.04653673053573658
0.8535,-0.0038822044751640992
0.854,-0.044843436600122584
0.8545,-0.04129218593629198
0.855,3.545136175580471e-05
0.8555,0.03398679984941592
0.856,0.024983943538375873
0.8565,-0.014681016716932463
0.857,-0.04200457879700633
0.8575,-0.033875551929395724
0.858,-0.009188153925746966
0.8585,0.0009477713564523415
0.859,-0.0072112200547476656
0.8595,-0.009281854491515829
0.86,0.014741493865698077
0.8605,0.05630305698990718
0.861,0.08322754092369519
0.8615,0.06210181368737898
0.862,-0.016772368134686008
0.8625,-0.12230927380369586
0.863,-0.19165811462903587
0.8635,-0.17325813742217755
0.864,-0.07381873175337277
0.8645,0.037971148741201485
0.865,0.08371421844106497
0.8655,0.04305522734869942
0.866,-0.024851863427358744
0.8665,-0.0334765388873227
0.867,0.047586886704494534
0.8675,0.1587978046205061
0.868,0.20329012996717682
0.8685,0.1354961513204006
0.869,0.002032423029234103
0.8695,-0.09835516208721946
0.87,-0.09654116923548664
0.8705,-0.006472841127849243
0.871,0.09429272365243897
0.8715,0.13855357364845225
0.872,0.1262395650220796
0.8725,0.10729733899746977
0.873,0.11377326566576695
0.8735,0.12030360082340806
0.874,0.07636176535084131
0.8745,-0.028839024102522322
0.875,-0.14150521664995502
0.8755000000000001,-0.18729850339650894
0.876,-0.14175156266742522
0.8765000000000001,-0.05495539468991537
0.877,-0.0032767101323565202
0.8775000000000001,-0.01815876248932404
0.878,-0.06465793650251997
0.8785000000000001,-0.0839680172396025
0.879,-0.04902932325734788
0.8795000000000001,0.017650019750974206
0.88,0.06890200967181626
0.8805000000000001,0.07174669556834076
0.881,0.029917530893013494
0.8815000000000001,-0.02160711652454758
0.882,-0.04244947669145571
0.8825000000000001,-0.017269327738189868
0.883,0.02979400985321071
0.8835000000000001,0.05543498878062887
0.884,0.04036544711089453
0.8845000000000001,0.009103008565550137
0.885,0.0013566480048336606
0.8855000000000001,0.029468502339575535
0.886,0.07057246935222607
0.8865000000000001,0.09431937150332889
0.887,0.08854981174799985
0.8875000000000001,0.060969257675416284
0.888,0.028699074204895272
0.8885000000000001,0.01120375441218615
0.889,0.021518964676826784
0.8895000000000001,0.049285012151569454
0.89,0.05586931576644598
0.8905000000000001,0.00500713819057475
0.891,-0.09296379506247836
0.8915000000000001,-0.1753369829233068
0.892,-0.17569157574435074
0.8925000000000001,-0.085160031415513
0.893,0.032493942473075
0.8935000000000001,0.09422199839143112
0.894,0.07415190121850843
0.8945000000000001,0.02190309039580817
0.895,-0.0006756101286033815
0.8955000000000001,0.0123453176741874
0.896,0.021171787481631482
0.8965,0.005633606532346479
0.897,-0.008157517536281097
0.8975,0.009923488576060697
0.898,0.0486689660426614
0.8985,0.06475231477183441
0.899,0.02607170395494688
0.8995,-0.05881282066385488
0.9,-0.14094121334496326
0.9005,-0.15688944585299255
0.901,-0.07545862478267337
0.9015,0.06308295783090967
0.902,0.16401264820309122
0.9025,0.1559878761869942
0.903,0.05688498465002434
0.9035,-0.04653746918806698
0.904,-0.08521499818224741
0.9045,-0.06533956142568251
0.905,-0.03902528081196398
0.9055,-0.03337552069673592
0.906,-0.02644609277522716
0.9065,0.009419048274412705
0.907,0.06416023416313861
0.9075,0.10404866972854236
0.908,0.11618864601049962
0.9085,0.12092273820657813
0.909,0.1402134465738098
0.9095,0.164870285661686
0.91,0.15977486694997597
0.9105,0.10143686912538524
0.911,0.0051874466502874785
0.9115,-0.08905740919368736
0.912,-0.15107853239463448
0.9125,-0.17141337669323328
0.913,-0.1489838623723208
0.9135,-0.0895398066753042
0.914,-0.01876533515917196
0.9145,0.020291116639857908
0.915,-0.0037996452981350955
0.9155,-0.07908795844906812
0.916,-0.14528328550584294
0.9165,-0.13030775428264146
0.917,-0.012558252710865764
0.9175,0.14490368785220784
0.918,0.23610406260172723
0.9185,0.20233794557855614
0.919,0.08068429579898387
0.9195,-0.03708667517151082
0.92,-0.08639741065215176
0.9205,-0.07262313613720245
0.921,-0.04636888820219426
0.9215,-0.04645147534042674
0.922,-0.06814891220005675
0.9225,-0.08074207654345214
0.923,-0.06389530098893341
0.9235,-0.023595506830657826
0.924,0.01549828155866868
0.9245,0.028037730015394738
0.925,0.010354244498260135
0.9255,-0.010440207128378502
0.926,-0.00225016773168617
0.9265,0.033117399225364226
0.927,0.05895763825750508
0.9275,0.04556503972393258
0.928,0.004776906261080962
0.9285,-0.01966773629079553
0.929,0.006456750953792638
0.9295,0.07249539053831934
0.93,0.12607027464185128
0.9305,0.11795938804172763
0.931,0.05040817795210296
0.9315,-0.02144401876876393
0.932,-0.04047331150018611
0.9325,0.002037338464913193
0.933,0.06856179768354279
0.9335,0.11937194221258889
0.934,0.14227283387608763
0.9345,0.1401686675700077
0.935,0.107515296712975
0.9355,0.0354164713801583
0.936,-0.062287567385784226
0.9365,-0.14308158563616025
0.937,-0.1658812166288354
0.9375,-0.12508438703605063
0.9380000000000001,-0.05075481497094926
0.9385,0.019680940831946055
0.9390000000000001,0.06267208541434861
0.9395,0.06835118445490103
0.9400000000000001,0.03678376420336151
0.9405,-0.016146555499301392
0.9410000000000001,-0.05686470193980623
0.9415,-0.053494877839290425
0.9420000000000001,-0.004944224470027311
0.9425,0.053959338296570215
0.9430000000000001,0.08397855132971524
0.9435,0.07674596254590094
0.9440000000000001,0.0511722860552726
0.9445,0.01853412083293784
0.9450000000000001,-0.031485257862462805
0.9455,-0.10291620412196889
0.9460000000000001,-0.1675842349215709
0.9465,-0.18600431210607565
0.9470000000000001,-0.1537570883851492
0.9475,-0.110443797104645
0.9480000000000001,-0.09324873268286175
0.9485,-0.0928230432206201
0.9490000000000001,-0.0682742567818618
0.9495,-0.00053431629924287
0.9500000000000001,0.08068754040059231
0.9505,0.12319981023773646
0.9510000000000001,0.10110733061977341
0.9515,0.03802878560687068
0.9520000000000001,-0.015546712207443992
0.9525,-0.025763458982083164
0.9530000000000001,0.003099727249824937
0.9535,0.04277879827643384
0.9540000000000001,0.0682812023324592
0.9545,0.07423583829710365
0.9550000000000001,0.07462742304135962
0.9555,0.08898992673304468
0.9560000000000001,0.12259588306116227
0.9565,0.15684486566025074
0.9570000000000001,0.16141063141761897
0.9575,0.11795609705046657
0.9580000000000001,0.03608610889706135
0.9585,-0.0469931238296199
0.9590000000000001,-0.08681072690906033
0.9595,-0.0690565932584561
0.96,-0.031374533692093816
0.9605,-0.03088367055284431
0.961,-0.08135770390350298
0.9615,-0.13635538941771508
0.962,-0.1423250901497852
0.9625,-0.0953571810610387
0.963,-0.037730892418583406
0.9635,-0.010611663665131521
0.964,-0.01960672561556815
0.9645,-0.037613902698505855
0.965,-0.030187356810318186
0.9655,0.01624227355166035
0.966,0.07792107811765032
0.9665,0.10767164613540574
0.967,0.08092025289959728
0.9675,0.02975165906361417
0.968,0.01444673955558234
0.9685,0.055448188422239995
0.969,0.10893788561956545
0.9695,0.11681416609834291
0.97,0.06628537159386624
0.9705,-0.008057020207731953
0.971,-0.06582199256932567
0.9715,-0.08937255620406993
0.972,-0.08053783434639272
0.9725,-0.05134479145370037
0.973,-0.02383676695427926
0.9735,-0.021707209397304777
0.974,-0.04547695540820264
0.9745,-0.06000627320974715
0.975,-0.022603584295376757
0.9755,0.06878313178613214
0.976,0.16188477500420703
0.9765,0.19428909949103756
0.977,0.15264730817175537
0.9775,0.08318549751515911
0.978,0.043487234970513246
0.9785,0.049537763804637605
0.979,0.07054323690809666
0.9795,0.06611024514966138
0.98,0.021334445414970336
0.9805,-0.04618371759233353
0.981,-0.09965416065372235
0.9815,-0.1058255469914806
0.982,-0.06159677730567872
0.9825,-0.0038455991994911717
0.983,0.018077919419907683
0.9835,-0.014315987251842107
0.984,-0.07696142463727079
0.9845,-0.1333683793525165
0.985,-0.16845587863374456
0.9855,-0.1909309774418437
0.986,-0.20911856002170662
0.9865,-0.21412717861794434
0.987,-0.19224679461633531
0.9875,-0.14628452381246762
0.988,-0.09095360209444811
0.9885,-0.02969940563396268
0.989,0.04686100363268033
0.9895,0.13647807787259428
0.99,0.2144663503445963
0.9905,0.25387950912980095
0.991,0.24692198854519298
0.9915,0.200426552102729
0.992,0.11811688723386046
0.9925,0.001335730740569419
0.993,-0.1264199450847927
0.9935,-0.20852830999637978
0.994,-0.19193496033140586
0.9945,-0.08159619707242004
0.995,0.0554371433130062
0.9955,0.14798813437127656
0.996,0.1755869610602213
0.9965,0.16447527015073102
0.997,0.1420556834272682
0.9975,0.10681101783690257
0.998,0.044095967729442194
0.9985,-0.03595005147772609
0.999,-0.08964339089601447
0.9995,-0.07974877869740057
1.0,-0.02056646972551242
1.0005,0.030897574306188308
1.0010000000000001,0.03357970660562419
1.0015,0.003138692064440539
1.002,-0.011497318738205165
1.0025,0.015257234240528682
1.0030000000000001,0.061071984228329164
1.0035,0.08338640340486732
1.004,0.06031801009726713
1.0045,0.004459509470839573
1.0050000000000001,-0.05033123437412051
1.0055,-0.07181759633622707
1.006,-0.0528065471844097
1.0065,-0.020217403587267112
1.0070000000000001,-0.012608296605314333
1.0075,-0.041611187618893514
1.008,-0.07890514717490024
1.0085,-0.08324288581078919
1.0090000000000001,-0.038576015205353795
1.0095,0.029320364132998017
1.01,0.06688202575747107
1.0105,0.03138669763926582
1.0110000000000001,-0.06703603747782651
1.0115,-0.15955149451710474
1.012,-0.17080313276541473
1.0125,-0.08994496735278315
1.0130000000000001,0.014953706275089625
1.0135,0.06333271170788837
1.014,0.03970019398035349
1.0145,-0.003942896451606399
1.0150000000000001,-0.01700488584525946
1.0155,-0.00472962792240477
1.016,-0.007273457593918168
1.0165,-0.03596695607043828
1.0170000000000001,-0.04974790613106739
1.0175,-0.0046899934470682105
1.018,0.08154703682216198
1.0185,0.13126728950380667
1.0190000000000001,0.08352671680909017
1.0195,-0.03098605774485487
1.02,-0.10318562311476688
1.0205,-0.046204787965688957
1.0210000000000001,0.11546236353847868
1.0215,0.26159465859477404
1.022,0.28091425399695846
1.0225,0.16253752133988342
1.0230000000000001,-0.003555172043438605
1.0235,-0.10525373058388446
1.024,-0.09418889362625883
1.0245,-0.01260091537913215
1.025,0.053027835812299834
1.0255,0.04757274719319531
1.026,-0.013571888327366149
1.0265,-0.07184395185563355
1.027,-0.08594591480437466
1.0275,-0.06318412016349079
1.028,-0.037904252928829076
1.0285,-0.03232514583533476
1.029,-0.04231193719646314
1.0295,-0.05033915533907031
1.03,-0.043434220012261146
1.0305,-0.021996174181507906
1.031,0.003020879064693835
1.0315,0.020032035715624667
1.032,0.024198824190127633
1.0325,0.017956131876029617
1.033,0.008950595439691005
1.0335,0.006369707759392251
1.034,0.012412962450175254
1.0345,0.014751241839755945
1.035,-0.006304172729384182
1.0355,-0.05487749350140362
1.036,-0.10354185427365833
1.0365,-0.11005488803987354
1.037,-0.05974882824278761
1.0375,0.00975343231762333
1.038,0.03447599493254746
1.0385,-0.019148509507096588
1.039,-0.12045303284271736
1.0395,-0.1956372779092582
1.04,-0.1860870278346237
1.0405,-0.0944379838778314
1.041,0.020762682552354174
1.0415,0.09428456461144008
1.042,0.0999915828102989
1.0425,0.05723242911794869
1.043,0.007105669403550511
1.0435,-0.012278556834578066
1.044,0.01820831825561611
1.0445,0.08742714869195466
1.045,0.1558737361757247
1.0455,0.18103216113108733
1.046,0.1493282945371237
1.0465,0.08238668686809572
1.047,0.011111147551185915
1.0475,-0.05139401097590929
1.048,-0.10563991459122037
1.0485,-0.13893183693143776
1.049,-0.11914602518764165
1.0495,-0.030499490844408762
1.05,0.08618592587187067
1.0505,0.1469586713727672
1.051,0.09575839175141734
1.0515,-0.03617936804720824
1.052,-0.15162070071968758
1.0525,-0.17304487975454122
1.053,-0.10359161443115557
1.0535,-0.005620301619793315
1.054,0.06552916358951462
1.0545,0.09835394725859531
1.055,0.11221493166841341
1.0555,0.12826729369317527
1.056,0.15155020134655306
1.0565,0.16739128629122493
1.057,0.15301381302953063
1.0575,0.09998754303283475
1.058,0.02626495610237213
1.0585,-0.037417207292151956
1.059,-0.07141139338348207
1.0595,-0.0746387598631119
1.06,-0.05341834265052661
1.0605,-0.013179909594909368
1.061,0.03449430381063984
1.0615,0.0628729923276071
1.062,0.0402153226965975
1.0625,-0.04049606707585946
1.063,-0.14117209459239996
1.0635000000000001,-0.19877526448536803
1.064,-0.17730489057051987
1.0645,-0.10113385640314027
1.065,-0.03146366376836738
1.0655000000000001,-0.008748374918784567
1.066,-0.022670901099566584
1.0665,-0.03707416291769666
1.067,-0.03314567710543074
1.0675000000000001,-0.022059237971536888
1.068,-0.024023621055304045
1.0685,-0.04553516022886379
1.069,-0.07492370121233022
1.0695000000000001,-0.09146241515328474
1.07,-0.07877260955326529
1.0705,-0.038726426850992854
1.071,0.003417444149120369
1.0715000000000001,0.016973532126581422
1.072,-0.0010326855835968464
1.0725,-0.01628691934852875
1.073,0.0066345642445729556
1.0735000000000001,0.06020519405609076
1.074,0.09879566460053887
1.0745,0.08747475515209391
1.075,0.03374364095041154
1.0755000000000001,-0.02719682248156933
1.076,-0.06314709864806355
1.0765,-0.06177653483033049
1.077,-0.03482859891827958
1.0775000000000001,-0.01165797271760413
1.078,-0.017906025674018916
1.0785,-0.05306632170080144
1.079,-0.09066851792176363
1.0795000000000001,-0.10091684600623237
1.08,-0.07216734686508418
1.0805,-0.016171247922139784
1.081,0.04178119891089064
1.0815000000000001,0.08269828194378806
1.082,0.10739103018433571
1.0825,0.12359769208382017
1.083,0.12303364528857058
1.0835000000000001,0.0892544504739468
1.084,0.03150482007899589
1.0845,-0.0080422473730889
1.085,0.007637855095597534
1.0855000000000001,0.07150592235094927
1.086,0.13656007625525893
1.0865,0.15428459282018697
1.087,0.10890077609899124
1.0875000000000001,0.025050336916432464
1.088,-0.04856020876517092
1.0885,-0.06855498678530017
1.089,-0.02295764123908669
1.0895,0.06486401520549563
1.09,0.1533023290259587
1.0905,0.19907834388015702
1.091,0.167763612963477
1.0915,0.05387397537378779
1.092,-0.09727784690532583
1.0925,-0.20307348680807583
1.093,-0.20061419651561255
1.0935,-0.10067941245128816
1.094,0.012793451346462915
1.0945,0.042013653335137964
1.095,-0.049422841788894604
1.0955,-0.20393707673745437
1.096,-0.31264217814429024
1.0965,-0.3033551137011823
1.097,-0.19536690692641198
1.0975,-0.07137157540855153
1.098,-0.002420880175366821
1.0985,-0.0019617476966458814
1.099,-0.037082381212992135
1.0995,-0.0644864222117054
1.1,-0.05768108770293248
1.1005,-0.020204949275292386
1.101,0.017543247679518547
1.1015,0.024952931092244213
1.102,0.003868815469115745
1.1025,-0.011302785064539148
1.103,0.006625121736524295
1.1035,0.043073401899401974
1.104,0.05660951636919352
1.1045,0.02843105720780756
1.105,-0.011333292031903154
1.1055,-0.0123387847319379
1.106,0.04260567078968712
1.1065,0.11692019532955689
1.107,0.1535432131587441
1.1075,0.1254424817369472
1.108,0.05222614211503611
1.1085,-0.0250823180974061
1.109,-0.0756090948182202
1.1095,-0.0892618201143606
1.11,-0.07236661876964397
1.1105,-0.040755180093421564
1.111,-0.009811538122116811
1.1115,0.017618068072770807
1.112,0.053888955030542626
1.1125,0.11095012465809537
1.113,0.17560649942459602
1.1135,0.2033301154248555
1.114,0.15076262401065874
1.1145,0.023137017696924615
1.115,-0.11730739414444358
1.1155,-0.19795081883441754
1.116,-0.1892681698776734
1.1165,-0.11423212351044688
1.117,-0.01935210796668653
1.1175,0.05455783579430689
1.118,0.08614493130003763
1.1185,0.07859645511319177
1.119,0.055321215496322046
1.1195,0.04247383362751058
1.12,0.049539421272432306
1.1205,0.0629670516695502
1.121,0.05577396358970651
1.1215,0.008726275823834449
1.122,-0.06678921805921227
1.1225,-0.12623119007379124
1.123,-0.12590636516800363
1.1235,-0.06849782081003385
1.124,-0.005847413113022115
1.1245,0.01470793099298343
1.125,0.0005744070964198714
1.1255,-0.0033293832591752602
1.1260000000000001,0.020790571324759748
1.1265,0.035668275115818326
1.127,-0.004415323371099429
1.1275,-0.09233605018795377
1.1280000000000001,-0.1693452161860775
1.1285,-0.18299096266557197
1.129,-0.1311737598203467
1.1295,-0.053505456206222074
1.1300000000000001,0.005242478775649125
1.1305,0.022090286484926468
1.131,0.0024169370152716295
1.1315,-0.02748144541284301
1.1320000000000001,-0.0376161423697859
1.1325,-0.016715377982506552
1.133,0.015993085052637048
1.1335,0.02573866336483971
1.1340000000000001,-0.0042860249900009
1.1345,-0.05191939686749729
1.135,-0.07033280225181152
1.1355,-0.029702320428735354
1.1360000000000001,0.047370450905467223
1.1365,0.09363899704212794
1.137,0.05461894611827674
1.1375,-0.05236327826249854
1.1380000000000001,-0.14398504971204984
1.1385,-0.14495671273276772
1.139,-0.053659656867062006
1.1395,0.06654901056438273
1.1400000000000001,0.14862811269475237
1.1405,0.1663558878805703
1.141,0.13152970779127046
1.1415,0.06841521757171404
1.1420000000000001,-0.0028308959941288846
1.1425,-0.06679979143171555
1.143,-0.10768309003177644
1.1435,-0.11014444127055618
1.1440000000000001,-0.07043636629021259
1.1445,-0.007452204530492428
1.145,0.04430155263950268
1.1455,0.0609812692296206
1.1460000000000001,0.049167461619135835
1.1465,0.035477970286607985
1.147,0.036984938541681514
1.1475,0.04422357308969844
1.1480000000000001,0.030627680263720217
1.1485,-0.022927726995525602
1.149,-0.10576668671666134
1.1495,-0.1735047394888039
1.1500000000000001,-0.17400634613369884
1.1505,-0.09124511244657611
1.151,0.031950406630229834
1.1515,0.12213284407800938
1.1520000000000001,0.13451573708727826
1.1525,0.08693495398598707
1.153,0.03788726132105062
1.1535,0.03452068359832677
1.154,0.07592726676942059
1.1545,0.11638419704553372
1.155,0.10772682792329019
1.1555,0.04989580026185641
1.156,-0.004013876222641265
1.1565,-0.005527463380956043
1.157,0.0297365180295883
1.1575,0.035602989961048215
1.158,-0.03011893245869084
1.1585,-0.136599120476983
1.159,-0.2067141749836509
1.1595,-0.1843502306082156
1.16,-0.08109799939170122
1.1605,0.029258038179029465
1.161,0.06584547606046046
1.1615,0.0065423824468877016
1.162,-0.09413058772437613
1.1625,-0.15372524436711923
1.163,-0.12881695793199463
1.1635,-0.04094511272995011
1.164,0.046717081171846746
1.1645,0.07070610660664038
1.165,0.0034721920687795617
1.1655,-0.12421216454252339
1.166,-0.23192195890569828
1.1665,-0.24100864327964255
1.167,-0.13657436693255856
1.1675,0.019015344910266498
1.168,0.1371750599851894
1.1685,0.16840756295779807
1.169,0.12489527771466225
1.1695,0.054717471061792464
1.17,0.0020638498286746736
1.1705,-0.014797432752335471
1.171,-0.0006944108192251993
1.1715,0.02905323784514332
1.172,0.056130757677450425
1.1725,0.06714329061067732
1.173,0.06821657769613003
1.1735,0.08424699093215547
1.174,0.12373809738526809
1.1745,0.14729194921173017
1.175,0.09946429330759315
1.1755,-0.01607286643583186
1.176,-0.11663222731330145
1.1765,-0.11784539060395116
1.177,-0.024243723892047625
1.1775,0.0694209935604953
1.178,0.06425432327601527
1.1785,-0.055919026893563185
1.179,-0.210923995766742
1.1795,-0.29156622085737854
1.18,-0.2514001087715438
1.1805,-0.14047957919590412
1.181,-0.04760168974409203
1.1815,-0.013451996976998767
1.182,-0.009075322353159868
1.1825,0.007339599586883076
1.183,0.03568467170862463
1.1835,0.04638028676242092
1.184,0.028858580116349966
1.1845,0.003496642115748484
1.185,-0.0106059769020567
1.1855,-0.01528248305349146
1.186,-0.016073642469733477
1.1865,-0.007311241415288897
1.187,0.014279277132295511
1.1875,0.03700024053113694
1.188,0.04881169719543531
1.1885000000000001,0.05499418573868091
1.189,0.06714407124594335
1.1895,0.07731463310662992
1.19,0.05841230584824963
1.1905000000000001,-2.494129758396496e-05
1.191,-0.06397051210723377
1.1915,-0.07879379782691422
1.192,-0.026297974703269347
1.1925000000000001,0.04919504337621185
1.193,0.07703794083466857
1.1935,0.023776417772469284
1.194,-0.0758816083416348
1.1945000000000001,-0.14934451019533593
1.195,-0.14909805279071459
1.1955,-0.08648680459811049
1.196,-0.008139656093088109
1.1965000000000001,0.04740682803368117
1.197,0.06551868833344464
1.1975,0.04656158732967856
1.198,0.0017300153011299202
1.1985000000000001,-0.04320091867589461
1.199,-0.05646384510903956
1.1995,-0.024703571884744757
1.2,0.031386869098438776
1.2005000000000001,0.07144301322656159
1.201,0.06896899460818595
1.2015,0.03144012045543235
1.202,-0.012409702126528224
1.2025000000000001,-0.042972751059108444
1.203,-0.06373581351863139
1.2035,-0.0845133191930751
1.204,-0.09712620819500355
1.2045000000000001,-0.07703112445652052
1.205,-0.012459135743677926
1.2055,0.07416245530686516
1.206,0.13970875447830525
1.2065000000000001,0.15160570837898965
1.207,0.10284520169512591
1.2075,0.008623736858642228
1.208,-0.09536004677956998
1.2085000000000001,-0.15729890641877414
1.209,-0.13926574907029873
1.2095,-0.058373515981995444
1.21,0.014968175368141396
1.2105000000000001,0.017743282241196326
1.211,-0.04728850075784539
1.2115,-0.12032565589223745
1.212,-0.14589139587160954
1.2125000000000001,-0.11761348252613636
1.213,-0.066531986654361
1.2135,-0.01687857557248076
1.214,0.03696898203910974
1.2145000000000001,0.10695766360303467
1.215,0.17251643511380238
1.2155,0.1786126744972092
1.216,0.0837836843756687
1.2165,-0.083259203117335
1.217,-0.219369149786563
1.2175,-0.218669386627724
1.218,-0.0670321866378428
1.2185,0.13223516333116786
1.219,0.2349360956972439
1.2195,0.1719150815632548
1.22,0.004616176418704205
1.2205,-0.1310782638617227
1.221,-0.14677319062958963
1.2215,-0.07491662388216436
1.222,-0.021935848943180326
1.2225,-0.054177667093236626
1.223,-0.13588238354615823
1.2235,-0.17555662266030533
1.224,-0.12456108015511838
1.2245,-0.023514275311757954
1.225,0.04862744620917823
1.2255,0.058434661111095444
1.226,0.037168324829360534
1.2265,0.02790790030427339
1.227,0.04071305358611392
1.2275,0.06135889172899921
1.228,0.07756745552577635
1.2285,0.0831856759642857
1.229,0.07013966419187569
1.2295,0.03009492639865339
1.23,-0.035670794099621046
1.2305,-0.10923995779486663
1.231,-0.1580875010571715
1.2315,-0.1513157663424635
1.232,-0.08564884806320361
1.2325,0.0030438323446506667
1.233,0.061989273119208266
1.2335,0.06066315988555338
1.234,0.01089213762710571
1.2345,-0.04549444680531589
1.235,-0.06584471542212977
1.2355,-0.032278865969106514
1.236,0.03779799393246861
1.2365,0.10142888009555184
1.237,0.11772010161824213
1.2375,0.07692134027323695
1.238,0.008058806352349892
1.2385,-0.04218176336226667
1.239,-0.04301650389663918
1.2395,-0.001904470349342045
1.24,0.03887044676926561
1.2405,0.03210155351199538
1.241,-0.03497244844461357
1.2415,-0.1239314395246517
1.242,-0.17221493839910193
1.2425,-0.14521867163066762
1.243,-0.06544114248064438
1.2435,0.010035435330160453
1.244,0.04041856296324607
1.2445,0.030752372051496963
1.245,0.017950282176722503
1.2455,0.03232945925039252
1.246,0.06656212739635889
1.2465,0.07743102133151267
1.247,0.02694024985678061
1.2475,-0.07083282642312551
1.248,-0.15242945187065007
1.2485,-0.16357781068441102
1.249,-0.10873888174496478
1.2495,-0.035841352053236124
1.25,0.01768867516349996
1.2505,0.050650294319578335
1.2510000000000001,0.07552625514274601
1.2515,0.08803093761202682
1.252,0.06955710837835381
1.2525,0.01597079649320984
1.2530000000000001,-0.04763209979317721
1.2535,-0.0875014000269927
1.254,-0.09171304191315563
1.2545,-0.07381922779727801
1.2550000000000001,-0.05121927191581592
1.2555,-0.03037173086586574
1.256,-0.01373702199507103
1.2565,-0.010608652295224978
1.2570000000000001,-0.031183346446594006
1.2575,-0.06830097644203793
1.258,-0.09137055868953138
1.2585,-0.06885900532623412
1.2590000000000001,-0.003638753492036611
1.2595,0.05867863134044049
1.26,0.06806159422642051
1.2605,0.02063250886291367
1.2610000000000001,-0.03356121976694246
1.2615,-0.03522676922160463
1.262,0.030263899946693446
1.2625,0.11571134375028495
1.2630000000000001,0.14612295062602107
1.2635,0.08105256797423194
1.264,-0.047174605286089966
1.2645,-0.15830231933089534
1.2650000000000001,-0.18843325268099553
1.2655,-0.13118308693436137
1.266,-0.027945802515038386
1.2665,0.06711459883650941
1.2670000000000001,0.1156402933036591
1.2675,0.1085409152115311
1.268,0.06455306665503197
1.2685,0.013591186417117186
1.2690000000000001,-0.025298603634838056
1.2695,-0.05178793909205742
1.27,-0.07040835223096058
1.2705,-0.07377419070730849
1.2710000000000001,-0.04754096536120598
1.2715,0.006508762716174022
1.272,0.059006146251277376
1.2725,0.07025005174390976
1.2730000000000001,0.0205942385437065
1.2735,-0.07306608168039744
1.274,-0.1670243877387326
1.2745,-0.21892804799232599
1.2750000000000001,-0.21321749455102176
1.2755,-0.16393017051402917
1.276,-0.09585730423655625
1.2765,-0.025981347662859814
1.2770000000000001,0.03852537613485094
1.2775,0.09184754004947136
1.278,0.124765624025163
1.2785,0.12793918286967898
1.2790000000000001,0.09888808121311785
1.2795,0.04699592810515821
1.28,-0.007506815917214308
1.2805,-0.04136167999338613
1.281,-0.040404896511411915
1.2815,-0.010009272098846585
1.282,0.0254588992522189
1.2825,0.03864905419975414
1.283,0.021266047287839734
1.2835,-0.007082519173170813
1.284,-0.015852780697376553
1.2845,0.0053527198741844815
1.285,0.034362785438975044
1.2855,0.04002178615822671
1.286,0.016108394865802254
1.2865,-0.013390290183257826
1.287,-0.01970215939762265
1.2875,0.005839630889705124
1.288,0.04661792539059515
1.2885,0.07034497154710491
1.289,0.04878197310319145
1.2895,-0.01715781181579076
1.29,-0.09036329172054795
1.2905,-0.128403753071084
1.291,-0.12656037170356005
1.2915,-0.12089156466999786
1.292,-0.1436561263028259
1.2925,-0.185291979828299
1.293,-0.20817765165454713
1.2935,-0.18964879339406696
1.294,-0.1407714349604403
1.2945,-0.08683623461576057
1.295,-0.04092836580902192
1.2955,-0.00031370003431694
1.296,0.03734190185342001
1.2965,0.06330077010207537
1.297,0.06670820942370889
1.2975,0.049176260579928105
1.298,0.02666453846978294
1.2985,0.02080994942419392
1.299,0.048191932391272764
1.2995,0.10629574829037478
1.3,0.1634644212823667
1.3005,0.17509415801225836
1.301,0.12414000485681032
1.3015,0.0418954615156335
1.302,-0.02134319870420727
1.3025,-0.0432128822611364
1.303,-0.040774950413359476
1.3035,-0.04207792500097037
1.304,-0.05694495541477239
1.3045,-0.07494605080665497
1.305,-0.08277310462747954
1.3055,-0.07818008685804348
1.306,-0.06925654094533323
1.3065,-0.06382705411775538
1.307,-0.060353848317344146
1.3075,-0.05008966421576325
1.308,-0.029152629272878688
1.3085,-0.005661893933051502
1.309,0.007303977753891454
1.3095,0.0024114770500874997
1.31,-0.01853029341113033
1.3105,-0.04380485506731631
1.311,-0.052680646897657356
1.3115,-0.02984952442288942
1.312,0.012033839350573575
1.3125,0.0338443543832107
1.313,0.008132474930076572
1.3135000000000001,-0.04500159592512549
1.314,-0.07282014208366738
1.3145,-0.04710753682823121
1.315,0.0017537101187766685
1.3155000000000001,0.018048982823818796
1.316,-0.014865451358492165
1.3165,-0.05397258024243583
1.317,-0.04278782369343082
1.3175000000000001,0.02745181232065554
1.318,0.10506250432535613
1.3185,0.12518843524327034
1.319,0.07170419816880064
1.3195000000000001,-0.006416165616167117
1.32,-0.043146078929200374
1.3205,-0.019876172230631903
1.321,0.022284646529712567
1.3215000000000001,0.03219300868441847
1.322,0.0006421288204743521
1.3225,-0.039696072375970996
1.323,-0.054784816847205625
1.3235000000000001,-0.03921559582426317
1.324,-0.011644841267062764
1.3245,0.005116752301988638
1.325,-0.0024345064167785235
1.3255000000000001,-0.03145673626382585
1.326,-0.06040909676388952
1.3265,-0.060474639953522154
1.327,-0.019680096949672835
1.3275000000000001,0.04248222781915525
1.328,0.0872964363287725
1.3285,0.08467012159327388
1.329,0.03193127745894234
1.3295000000000001,-0.046878494840232585
1.33,-0.11607761656683632
1.3305,-0.14896681269897477
1.331,-0.1434263122264004
1.3315000000000001,-0.1215838958958575
1.332,-0.1110503534812161
1.3325,-0.12043871974455622
1.333,-0.1322979801514536
1.3335000000000001,-0.12429837464705115
1.334,-0.0970085884849909
1.3345,-0.07453046063294144
1.335,-0.07613474877392525
1.3355000000000001,-0.09296338976352533
1.336,-0.09739550368914755
1.3365,-0.0742672886550267
1.337,-0.03684949934305809
1.3375000000000001,-0.007163085894014371
1.338,0.013352726307243792
1.3385,0.04177450160999008
1.339,0.08453005692315785
1.3395000000000001,0.12437098506348199
1.34,0.1390536934581295
1.3405,0.12212580929441981
1.341,0.08230135478348992
1.3415000000000001,0.03340583738199334
1.342,-0.0073313249884898474
1.3425,-0.018896361706681367
1.343,0.01112730212250207
1.3435000000000001,0.06843183272858748
1.344,0.11288593737770054
1.3445,0.10686527575603208
1.345,0.04729647496485477
1.3455,-0.030358071864868934
1.346,-0.08198250460071978
1.3465,-0.09069465595224253
1.347,-0.07362937057850713
1.3475,-0.054645417608932025
1.348,-0.03622792294808649
1.3485,-0.00523802834460405
1.349,0.034930282765069424
1.3495,0.050201613147476384
1.35,0.006459738886593588
1.3505,-0.08440920267810771
1.351,-0.15847134663218881
1.3515,-0.14942128760038073
1.352,-0.04941518235485356
1.3525,0.07658181468547351
1.353,0.1386787969007541
1.3535,0.09541724054830925
1.354,-0.009094631476049938
1.3545,-0.08289551452562459
1.355,-0.07018679405279879
1.3555,-0.000610530032777154
1.356,0.046508237193430446
1.3565,0.023396664822385328
1.357,-0.04361867624010904
1.3575,-0.08562569541603053
1.358,-0.0570328162234374
1.3585,0.023988320099034
1.359,0.08813650911462532
1.3595,0.07004233470874165
1.36,-0.032962731857822225
1.3605,-0.1488466425107849
1.361,-0.1853981981248601
1.3615,-0.10941175331626538
1.362,0.017989788413904376
1.3625,0.08291914718831271
1.363,0.011083771306924091
1.3635,-0.15944606880762344
1.364,-0.29530988376828327
1.3645,-0.27642465150988543
1.365,-0.10404202505230536
1.3655,0.09811631035587
1.366,0.19461825970191174
1.3665,0.1509508470841295
1.367,0.04043931145316098
1.3675,-0.04422827029042844
1.368,-0.06897011933257997
1.3685,-0.05318559034613671
1.369,-0.017583557121757715
1.3695,0.03530191157404759
1.37,0.09336893541102491
1.3705,0.11709007412034282
1.371,0.06937316324586879
1.3715,-0.0402310072350903
1.372,-0.15255947156937305
1.3725,-0.20439603137102558
1.373,-0.17670257401989437
1.3735,-0.1026342859535286
1.374,-0.03816209106169187
1.3745,-0.024246056994262872
1.375,-0.06041039110531944
1.3755,-0.10413663796157899
1.3760000000000001,-0.10643062695513263
1.3765,-0.058847817558622374
1.377,9.563028249920304e-05
1.3775,0.030350479347983524
1.3780000000000001,0.033364130961191604
1.3785,0.041399050510855795
1.379,0.07030948745087234
1.3795,0.09638095198488707
1.3800000000000001,0.08510823684387614
1.3805,0.03656493656031355
1.381,-0.00644010032239672
1.3815,0.0012877301575255394
1.3820000000000001,0.060434480745791136
1.3825,0.12364478432354171
1.383,0.13963754854238317
1.3835,0.09819914629903163
1.3840000000000001,0.03167944290068531
1.3845,-0.01971965184384363
1.385,-0.038219727506560885
1.3855,-0.03278867931869851
1.3860000000000001,-0.026446864089545163
1.3865,-0.03830228126686863
1.387,-0.06590071422549303
1.3875,-0.08217573586052956
1.3880000000000001,-0.06032688217866071
1.3885,-0.007431356255405391
1.389,0.034956721348815424
1.3895,0.03192296143429664
1.3900000000000001,-0.0071126945266060055
1.3905,-0.03997034459428949
1.391,-0.03974887763611413
1.3915,-0.023127697180986305
1.3920000000000001,-0.028637027761095227
1.3925,-0.07257995883311942
1.393,-0.13017703461714353
1.3935,-0.15797121888888052
1.3940000000000001,-0.1338254323660792
1.3945,-0.07943762002543218
1.395,-0.045329266239187704
1.3955,-0.06641541099201537
1.3960000000000001,-0.1264544141225564
1.3965,-0.16972018330122635
1.397,-0.1503009586497133
1.3975,-0.06864600272871253
1.3980000000000001,0.03325602905826148
1.3985,0.10220799554772483
1.399,0.10660646694147191
1.3995,0.05951944330109835
1.4000000000000001,0.01326139494553349
1.4005,0.014052262723994574
1.401,0.054076055706435616
1.4015,0.0819901916623773
1.4020000000000001,0.06731283753700734
1.4025,0.037111164909778754
1.403,0.03639509657282323
1.4035,0.06700193509103576
1.4040000000000001,0.08491213619957719
1.4045,0.05412949002897381
1.405,-0.012826461053384827
1.4055,-0.07013325233464955
1.4060000000000001,-0.08365340042522243
1.4065,-0.0583040766739011
1.407,-0.029288740376267018
1.4075,-0.0293602693511905
1.408,-0.05911240727776688
1.4085,-0.08789923835972636
1.409,-0.08679935917437556
1.4095,-0.05902613126886249
1.41,-0.03623026809944457
1.4105,-0.04764773283708461
1.411,-0.0920517176623263
1.4115,-0.13665793514013735
1.412,-0.147385486390619
1.4125,-0.12515866765877642
1.413,-0.10691568229641929
1.4135,-0.1213132018067887
1.414,-0.14476849002035172
1.4145,-0.11460012294461205
1.415,0.002507061632013619
1.4155,0.15651901389667824
1.416,0.2404462260776283
1.4165,0.18220125299603135
1.417,0.015371817043103118
1.4175,-0.14029967745423222
1.418,-0.17250275692808076
1.4185,-0.06405184112981846
1.419,0.09524351980041307
1.4195,0.1803726536095715
1.42,0.13000685139067547
1.4205,-0.007221589753699097
1.421,-0.11657771918127047
1.4215,-0.11073444653446898
1.422,0.005777738764800649
1.4225,0.14633596929879136
1.423,0.21129048461088273
1.4235,0.1610571255921766
1.424,0.036423792129352796
1.4245,-0.08339481429226102
1.425,-0.13755468395873505
1.4255,-0.10877851777714437
1.426,-0.01802917666774249
1.4265,0.08776559845738267
1.427,0.15064202658990727
1.4275,0.13008103619023767
1.428,0.03650436727436935
1.4285,-0.06690350466789716
1.429,-0.11332378370731953
1.4295,-0.09028700690072548
1.43,-0.04313885780879015
1.4305,-0.023511866828383104
1.431,-0.04616778015000558
1.4315,-0.094253294709416
1.432,-0.14542564563620924
1.4325,-0.1790705177387087
1.433,-0.17296849781296017
1.4335,-0.12002043683867168
1.434,-0.05210226466741119
1.4345,-0.022034164383302628
1.435,-0.04347276294285973
1.4355,-0.06519387877968211
1.436,-0.030159774272440404
1.4365,0.04746258267804727
1.437,0.09043871605405589
1.4375,0.04522348846624317
1.438,-0.058395963979084725
1.4385000000000001,-0.13816645149140988
1.439,-0.13545458891091078
1.4395,-0.05495706897548907
1.44,0.056032704972908444
1.4405000000000001,0.14666043904187778
1.441,0.1784205775922374
1.4415,0.12783569984839674
1.442,0.004391654339195144
1.4425000000000001,-0.13221968620760158
1.443,-0.1997761039357499
1.4435,-0.1593700618457401
1.444,-0.05186430081370635
1.4445000000000001,0.03771709619294835
1.445,0.051331967881743046
1.4455,-0.002792212263929089
1.446,-0.06930391589880178
1.4465000000000001,-0.09714273437919141
1.447,-0.07726700588600909
1.4475,-0.03864912218565607
1.448,-0.01470522292297757
1.4485000000000001,-0.016460353783889416
1.449,-0.031279592082640154
1.4495,-0.0370656653017524
1.45,-0.018046940951860272
1.4505000000000001,0.023371117838663438
1.451,0.06554747085630161
1.4515,0.08263149659070773
1.452,0.06498892247336392
1.4525000000000001,0.02467233453325273
1.453,-0.018670358213409476
1.4535,-0.05351152119622318
1.454,-0.07771134996254456
1.4545000000000001,-0.09060492472201236
1.455,-0.08955652424201796
1.4555,-0.0733886008944659
1.456,-0.04668754230292016
1.4565000000000001,-0.02005816483987021
1.457,-0.003557206310441623
1.4575,0.002516328904497729
1.458,0.007251889129393614
1.4585000000000001,0.016135715079407583
1.459,0.02193576531818588
1.4595,0.015398075970681014
1.46,0.005350351110227499
1.4605000000000001,0.0182889515657519
1.461,0.06782932799438782
1.4615,0.12734147825139588
1.462,0.1445955059517263
1.4625000000000001,0.0895228658219458
1.463,-0.013026196695191788
1.4635,-0.09791563548556091
1.464,-0.1103640683583652
1.4645000000000001,-0.051061111363925736
1.465,0.024960724354516888
1.4655,0.05741790562619951
1.466,0.029286095665076412
1.4665000000000001,-0.032854080478881977
1.467,-0.0948143015673515
1.4675,-0.1372988638320097
1.468,-0.14875940655351888
1.4685000000000001,-0.11964678356923142
1.469,-0.057153434655514354
1.4695,0.00531706357718658
1.47,0.03045247496442677
1.4705000000000001,0.01196739093145093
1.471,-0.01887400894204244
1.4715,-0.025546298503982504
1.472,-0.005528707579968288
1.4725,0.006188965426537874
1.473,-0.021540210917540825
1.4735,-0.07382853242732332
1.474,-0.09932220270965936
1.4745,-0.06468674330065938
1.475,0.007432618414549911
1.4755,0.0578345151894991
1.476,0.043751741355721664
1.4765,-0.029359136888763234
1.477,-0.12248311487798531
1.4775,-0.1994812181733174
1.478,-0.2451372144595846
1.4785,-0.2546232728977418
1.479,-0.21864312895573804
1.4795,-0.12822458732972306
1.48,0.004317173436208898
1.4805,0.13360196141787017
1.481,0.20055005890524744
1.4815,0.17485549150932586
1.482,0.08119229816420345
1.4825,-0.020312585922667978
1.483,-0.0802712299745917
1.4835,-0.08731019509364027
1.484,-0.05895889156206386
1.4845,-0.019042569538489578
1.485,0.013779959433510933
1.4855,0.028352311407371177
1.486,0.026330878999277267
1.4865,0.02571120110599079
1.487,0.04785245880912738
1.4875,0.09380825589195074
1.488,0.1390232079707281
1.4885,0.1574719206219507
1.489,0.1445063395389496
1.4895,0.10882588173303388
1.49,0.052120677739776244
1.4905,-0.027413668791489886
1.491,-0.1146149133037406
1.4915,-0.17799004129452728
1.492,-0.1958661822015706
1.4925,-0.17214231653661485
1.493,-0.12445118219442963
1.4935,-0.06782550166022344
1.494,-0.01393592462128328
1.4945,0.023986704908220413
1.495,0.0352576683217886
1.4955,0.019540483065232442
1.496,-0.014462854559234515
1.4965,-0.05670062311228845
1.497,-0.09719814726704795
1.4975,-0.1220424606167653
1.498,-0.11710642046543893
1.4985,-0.08072198838378311
1.499,-0.02852716835841961
1.4995,0.020572806876403175
1.5,0.06215928362016091
1.5005,0.10251815793454158
1.5010000000000001,0.1364530709875803
1.5015,0.14065233769930913
1.502,0.09884903052220755
1.5025,0.02710157520903904
1.5030000000000001,-0.03855519662256384
1.5035,-0.07736697732256602
1.504,-0.09355824552593883
1.5045,-0.09279967558378226
1.5050000000000001,-0.06835866337573418
1.5055,-0.01975835684949664
1.506,0.02612599366770959
1.5065,0.0265072968078816
1.5070000000000001,-0.03894126563373709
1.5075,-0.14007697574398387
1.508,-0.2110210690588652
1.5085,-0.2025125703639659
1.5090000000000001,-0.12546481138585086
1.5095,-0.04076896229286376
1.51,-0.003572982805371441
1.5105,-0.01814748411125361
1.5110000000000001,-0.04606976665848503
1.5115,-0.05096181503017613
1.512,-0.027058610458730877
1.5125,0.010877889422499306
1.5130000000000001,0.046715961642069204
1.5135,0.06340304507380008
1.514,0.042239584878715694
1.5145,-0.01566414177135425
1.5150000000000001,-0.07010710787787168
1.5155,-0.06689704308515246
1.516,0.005022648273531691
1.5165,0.09140809259860112
1.5170000000000001,0.12201018584135223
1.5175,0.0801265686918215
1.518,0.012471801480891838
1.5185,-0.02638805054827681
1.5190000000000001,-0.023486067751778108
1.5195,-0.00011964236286293901
1.52,0.023814924838704198
1.5205,0.040327614577143706
1.5210000000000001,0.03815390691822231
1.5215,0.004019686727032174
1.522,-0.05120643696211064
1.5225,-0.08641520563864603
1.5230000000000001,-0.07009814787062425
1.5235,-0.02161714374025965
1.524,0.005371168157259002
1.5245,-0.014838423980358634
1.5250000000000001,-0.04810947470448551
1.5255,-0.04186729455973006
1.526,0.008511844599270239
1.5265,0.04822495282375175
1.5270000000000001,0.020414656819280976
1.5275,-0.07138895032014562
1.528,-0.16113536417365326
1.5285,-0.17785631267815502
1.5290000000000001,-0.1052711123167139
1.5295,0.007265373545881533
1.53,0.08385597365550115
1.5305,0.07743820223428306
1.5310000000000001,0.0014855555681972084
1.5315,-0.08605046446926831
1.532,-0.13116211368935735
1.5325,-0.11907296471870045
1.5330000000000001,-0.07166855634237064
1.5335,-0.024517287971804462
1.534,-0.007884503110918463
1.5345,-0.03380594073633746
1.5350000000000001,-0.08433564745129153
1.5355,-0.11280010525306745
1.536,-0.07399530468349046
1.5365,0.0311724086894625
1.537,0.1426461201785836
1.5375,0.1866164472301208
1.538,0.1415968097471027
1.5385,0.05475687279766291
1.539,-0.009439013102127199
1.5395,-0.029205171828376682
1.54,-0.031722933359617914
1.5405,-0.05069621012437862
1.541,-0.08906843743789238
1.5415,-0.1228123275438043
1.542,-0.1317305536140317
1.5425,-0.11962277724111153
1.543,-0.1057984980070967
1.5435,-0.10147527474313721
1.544,-0.09605841859179325
1.5445,-0.06758753121587997
1.545,-0.008275524872360942
1.5455,0.0630923361324884
1.546,0.11696652549069016
1.5465,0.13523829906706072
1.547,0.11339674181304615
1.5475,0.053685331003479095
1.548,-0.02696973397657817
1.5485,-0.08851486375235271
1.549,-0.09126436928946942
1.5495,-0.03772508668057589
1.55,0.022582904309030205
1.5505,0.041870869490982766
1.551,0.019613127175402843
1.5515,-0.009968285025171424
1.552,-0.02407360955570701
1.5525,-0.027666903469327424
1.553,-0.030029678415391815
1.5535,-0.02756514328688226
1.554,-0.016598680696843213
1.5545,-0.006930049711695729
1.555,-0.008937452506280672
1.5555,-0.01430532170929322
1.556,-0.0031306777953383404
1.5565,0.030625483169082278
1.557,0.06947945690952724
1.5575,0.08665996785143262
1.558,0.06408289931128489
1.5585,0.002540339251241708
1.559,-0.07430182756082092
1.5595,-0.1276254368640202
1.56,-0.12842623762715366
1.5605,-0.08375376748359906
1.561,-0.034964686060162495
1.5615,-0.02080069862339147
1.562,-0.039761735438474624
1.5625,-0.055827252670623335
1.563,-0.04399275287372441
1.5635000000000001,-0.02115543589324864
1.564,-0.023744800263195837
1.5645,-0.05983833650184532
1.565,-0.09557292221241863
1.5655000000000001,-0.092636643295116
1.566,-0.050902626262529845
1.5665,-0.005885349632339073
1.567,0.01354819440482159
1.5675000000000001,0.014811309318902748
1.568,0.023000430831257974
1.5685,0.040259519419128136
1.569,0.039100339339652714
1.5695000000000001,0.0005696519035540259
1.57,-0.05424542880549334
1.5705,-0.08426569678576645
1.571,-0.07593324996848272
1.5715000000000001,-0.05699630792286979
1.572,-0.06076830732871333
1.5725,-0.08788850648576177
1.573,-0.10945214850663817
1.5735000000000001,-0.09950134348883387
1.574,-0.05364508426523678
1.5745,0.019643515492573323
1.575,0.10639897031596235
1.5755000000000001,0.17765383305313906
1.576,0.1919854725401259
1.5765,0.13038797353279719
1.577,0.02670288865404362
1.5775000000000001,-0.053905836237746765
1.578,-0.07287936176057908
1.5785,-0.047132771383203674
1.579,-0.018908948046844384
1.5795000000000001,-0.009384988495452768
1.58,-0.010817168171886915
1.5805,-0.015125607332119708
1.581,-0.03292428100019866
1.5815000000000001,-0.07672265778288027
1.582,-0.13118649363939364
1.5825,-0.1529059815997066
1.583,-0.11100568046335617
1.5835000000000001,-0.02807114209800141
1.584,0.03149561160549283
1.5845,0.02283592344653473
1.585,-0.03485907724165513
1.5855000000000001,-0.08137720195692312
1.586,-0.07697238336145883
1.5865,-0.03434588776829388
1.587,0.004165033985138072
1.5875000000000001,0.010576032618173295
1.588,-0.008704593479668512
1.5885,-0.028640057702241838
1.589,-0.03198178892204241
1.5895000000000001,-0.018169116507719914
1.59,0.004454357931526181
1.5905,0.024642536578694856
1.591,0.029954379528500667
1.5915000000000001,0.01503215389267221
1.592,-0.010425363386871535
1.5925,-0.031549220190476415
1.593,-0.0444259030320051
1.5935000000000001,-0.04985427776226226
1.594,-0.03572852737591024
1.5945,0.012292814400042177
1.595,0.07652099170593882
1.5955000000000001,0.10189662684738451
1.596,0.04297772854329379
1.5965,-0.07950216182686361
1.597,-0.17639082760917113
1.5975000000000001,-0.1599855502680254
1.598,-0.028855245143159187
1.5985,0.12004540143958048
1.599,0.17607191533162042
1.5995000000000001,0.11599749344301974
1.6,0.01704780218978929
1.6005,-0.027718527123501917
1.601,0.0035372175840203365
1.6015,0.059178979525748764
1.602,0.08157702352748863
1.6025,0.05866150427433524
1.603,0.011452158678216811
1.6035,-0.043703016441153764
1.604,-0.10001216100173826
1.6045,-0.13790321632727895
1.605,-0.12594590327536226
1.6055,-0.058678555408460675
1.606,0.01665447673087349
1.6065,0.032517700537608905
1.607,-0.03087708869549503
1.6075,-0.12111583206203372
1.608,-0.16685457886084284
1.6085,-0.14799692974332884
1.609,-0.10506398334143074
1.6095,-0.08754221974463465
1.61,-0.10512099074779212
1.6105,-0.12758606048416782
1.611,-0.12200042960742792
1.6115,-0.08626717736351802
1.612,-0.047817143994779696
1.6125,-0.030166904073112406
1.613,-0.026570640575996098
1.6135,-0.01340121836627528
1.614,0.01845734802715214
1.6145,0.05886900173042872
1.615,0.09869072945675866
1.6155,0.13693820869908863
1.616,0.16574337466329855
1.6165,0.16158575801751968
1.617,0.10230532384218066
1.6175,-0.004692096290786973
1.618,-0.11412283936369629
1.6185,-0.16887339466765836
1.619,-0.14216009031968277
1.6195,-0.060189577883853596
1.62,0.01661279058093728
1.6205,0.04043908666350418
1.621,0.010449362828095088
1.6215,-0.03484020247081352
1.622,-0.055549259362958736
1.6225,-0.04092741129520021
1.623,-0.009072908629334069
1.6235,0.01479840407820861
1.624,0.018592756657903182
1.6245,0.008688397542426462
1.625,-0.0002872637641644846
1.6255,-0.0021338464391874312
1.6260000000000001,-0.00525203362947718
1.6265,-0.019999601747842016
1.627,-0.043196922818481254
1.6275,-0.06086810925132179
1.6280000000000001,-0.06454619043542731
1.6285,-0.05774341095520975
1.629,-0.04426484796915432
1.6295,-0.017321707107810818
1.6300000000000001,0.02941956985127587
1.6305,0.07907368629604328
1.631,0.0925089148194836
1.6315,0.04379103319135083
1.6320000000000001,-0.04677251293728792
1.6325,-0.12154182715757107
1.633,-0.13074306372939568
1.6335,-0.0727200726169587
1.6340000000000001,0.006429762586278708
1.6345,0.05319182218257858
1.635,0.04822566195793943
1.6355,0.010746726939396552
1.6360000000000001,-0.028229003503101903
1.6365,-0.047096525609310956
1.637,-0.036627474968657904
1.6375,-0.0024744993396164216
1.6380000000000001,0.030261949638727817
1.6385,0.031229517659520957
1.639,-0.003188695614566686
1.6395,-0.03597700013511807
1.6400000000000001,-0.01830859912881383
1.6405,0.06037874583338393
1.641,0.1490679411789471
1.6415,0.16816572658600393
1.6420000000000001,0.07752567706668836
1.6425,-0.08352791889992366
1.643,-0.22812096835973925
1.6435,-0.2945861139298584
1.6440000000000001,-0.2828461470857635
1.6445,-0.22434150266913724
1.645,-0.1386019103154198
1.6455,-0.034917360488009364
1.6460000000000001,0.05954213881842624
1.6465,0.10388652060219429
1.647,0.08309210238719181
1.6475,0.02698233730308964
1.6480000000000001,-0.020136845771056754
1.6485,-0.04004307815012982
1.649,-0.04276672044565635
1.6495,-0.03802738508313827
1.6500000000000001,-0.021507930663266027
1.6505,0.00853831315836199
1.651,0.03618971704213697
1.6515,0.04131497270454556
1.6520000000000001,0.023866177083872186
1.6525,0.005465012848428159
1.653,0.0080863148135162
1.6535,0.03761239945701003
1.6540000000000001,0.0842355425748856
1.6545,0.12663553533470326
1.655,0.13471846108327415
1.6555,0.0853655690850995
1.6560000000000001,-0.00967088121536587
1.6565,-0.09939170319995097
1.657,-0.13500843178496244
1.6575,-0.1166585570897334
1.6580000000000001,-0.0860170327921985
1.6585,-0.0740873089802062
1.659,-0.07403792748296434
1.6595,-0.06787671989815704
1.6600000000000001,-0.05733218305569461
1.6605,-0.05544954031137993
1.661,-0.06349231384099224
1.6615,-0.0704118280195289
1.6620000000000001,-0.06550406938785981
1.6625,-0.0416224398677037
1.663,0.0036923811075268587
1.6635,0.05628297615941964
1.6640000000000001,0.0782965850646539
1.6645,0.030995691606803856
1.665,-0.0817590348901811
1.6655,-0.19714362370078123
1.666,-0.23589131450971043
1.6665,-0.1695061856079689
1.667,-0.04435645127964427
1.6675,0.05899320474196359
1.668,0.08659719686436225
1.6685,0.03883898574612739
1.669,-0.044563380970143986
1.6695,-0.11606418324182537
1.67,-0.1437725247233118
1.6705,-0.11998211570820623
1.671,-0.05683321469818514
1.6715,0.025410400512664542
1.672,0.10724691722869074
1.6725,0.16945284850319192
1.673,0.1918844732991387
1.6735,0.16397871436396072
1.674,0.09929777320722452
1.6745,0.03322405885133299
1.675,0.001059920437778794
1.6755,0.015590624687562542
1.676,0.06046263099678174
1.6765,0.10185393778883106
1.677,0.11019721471536437
1.6775,0.07693067388650497
1.678,0.01687139155894498
1.6785,-0.03978112306305283
1.679,-0.06146653343125504
1.6795,-0.03613157533667082
1.68,0.013173859161245327
1.6805,0.041620931816539496
1.681,0.022109633188223236
1.6815,-0.02966388562533494
1.682,-0.07403333401689309
1.6825,-0.08798955942029782
1.683,-0.08285699197630202
1.6835,-0.08576690986711341
1.684,-0.1105952266739234
1.6845,-0.14567766384625158
1.685,-0.163285621910977
1.6855,-0.1429865985725988
1.686,-0.09470581347953591
1.6865,-0.05760142119433478
1.687,-0.06338864784797334
1.6875,-0.09684260556611238
1.688,-0.10556799948385462
1.6885000000000001,-0.058762989673956136
1.689,0.01318966833395724
1.6895,0.05127989794630235
1.69,0.03511912751375625
1.6905000000000001,0.0014992255321382257
1.691,-0.005193706237053416
1.6915,0.016344930645179927
1.692,0.032435439860320915
1.6925000000000001,0.020685747729865964
1.693,-0.0060506532712850366
1.6935,-0.019603721154415957
1.694,-0.009822259512482938
1.6945000000000001,0.005639711627437564
1.695,-0.00029878261139009744
1.6955,-0.040555811430130234
1.696,-0.10155342507557726
1.6965000000000001,-0.14175181379642016
1.697,-0.10916858028735775
1.6975,0.01224740489630535
1.698,0.1629535358931944
1.6985000000000001,0.23713697880497156
1.699,0.17479940285724208
1.6995,0.022421169128839274
1.7,-0.10842049086775146
1.7005000000000001,-0.14075945817165655
1.701,-0.08573259255201293
1.7015,-0.006880418235995836
1.702,0.0481429603359778
1.7025000000000001,0.07296835411960534
1.703,0.07746704622344139
1.7035,0.06185244529717354
1.704,0.023125856599257637
1.7045000000000001,-0.02382123119815849
1.705,-0.04692537892718465
1.7055,-0.027250767289100204
1.706,0.014375562542928055
1.7065000000000001,0.031703456935656175
1.707,-0.0008079751349694938
1.7075,-0.0620058772543535
1.708,-0.10841145700417297
1.7085000000000001,-0.11876832043095648
1.709,-0.10852367588455816
1.7095,-0.10371880576694353
1.71,-0.10855085948663372
1.7105000000000001,-0.1029201424913825
1.711,-0.07146917599135968
1.7115,-0.030141588268297864
1.712,-0.014344402598027923
1.7125000000000001,-0.03515384581208707
1.713,-0.05628315490281836
1.7135,-0.028793533402535466
1.714,0.05017799444746806
1.7145000000000001,0.12234161891114374
1.715,0.11664667357427197
1.7155,0.014654660177147057
1.716,-0.1264682723863897
1.7165000000000001,-0.21246512870497
1.717,-0.18097160468554668
1.7175,-0.04757706103805796
1.718,0.10538870987333698
1.7185000000000001,0.18758537922337074
1.719,0.16245703107972614
1.7195,0.06678979112733899
1.72,-0.025053168358778737
1.7205000000000001,-0.06083793191083674
1.721,-0.04163279901339002
1.7215,-0.0020926221351973157
1.722,0.028265897821780607
1.7225000000000001,0.03942913921956784
1.723,0.030360544641472642
1.7235,0.0039150976671981814
1.724,-0.025442634155867772
1.7245000000000001,-0.03488989400941864
1.725,-0.015378688217850881
1.7255,0.015496781412764638
1.726,0.031334316657681896
1.7265000000000001,0.024283316787645556
1.727,0.007551340978356115
1.7275,-0.0061340114469768114
1.728,-0.019369259497717548
1.7285,-0.04187369774991284
1.729,-0.07250897719009719
1.7295,-0.09266615627407318
1.73,-0.08164438612234952
1.7305,-0.0432225624510752
1.731,-0.010501113287878873
1.7315,-0.012780049833524362
1.732,-0.041930424036225454
1.7325,-0.06457133478523759
1.733,-0.06334950981267232
1.7335,-0.051721137469839
1.734,-0.050397134936722765
1.7345,-0.06384944588063236
1.735,-0.08103273600623133
1.7355,-0.08658785733359237
1.736,-0.06728173890160395
1.7365,-0.018698310738093693
1.737,0.044070900035577086
1.7375,0.08731335081041965
1.738,0.08437589794006232
1.7385,0.04591882655831667
1.739,0.015982791769169377
1.7395,0.02980135574943689
1.74,0.07820873607111568
1.7405,0.11729893842036494
1.741,0.10872703707927421
1.7415,0.04880021077875601
1.742,-0.03183929426634687
1.7425,-0.08814792270059532
1.743,-0.08787766016981324
1.7435,-0.03446499474851317
1.744,0.031981911181279785
1.7445,0.06234250307541993
1.745,0.03507770990776768
1.7455,-0.027650823025288717
1.746,-0.07824654852424365
1.7465,-0.0852876842227394
1.747,-0.06481220931960145
1.7475,-0.06677690101232862
1.748,-0.1215367639470697
1.7485,-0.20063812267057285
1.749,-0.23988178938524596
1.7495,-0.20236334007561355
1.75,-0.11116998379661636
1.7505,-0.02221566974051266
1.7510000000000001,0.02209458226030555
1.7515,0.01338813505828098
1.752,-0.02676516061639965
1.7525,-0.058059479043946136
1.7530000000000001,-0.040416192576425945
1.7535,0.03903509295891957
1.754,0.14923688169579968
1.7545,0.22661504086074175
1.7550000000000001,0.2143457316245633
1.7555,0.10933365388011838
1.756,-0.021457773749384096
1.7565,-0.0847554907220667
1.7570000000000001,-0.03907556428469694
1.7575,0.06725507875810409
1.758,0.14237024196466289
1.7585,0.13630433281184579
1.7590000000000001,0.07700851221146046
1.7595,0.02644594696657765
1.76,0.013286294948821078
1.7605,0.012295327607166645
1.7610000000000001,-0.01936693723218246
1.7615,-0.09265046872677006
1.762,-0.1689799092484907
1.7625,-0.18814296443487438
1.7630000000000001,-0.12236007742317077
1.7635,-0.01275444266597839
1.764,0.05345014741352524
1.7645,0.01757380145296452
1.7650000000000001,-0.09233889218071714
1.7655,-0.18501734510707538
1.766,-0.19316185334288033
1.7665,-0.13080331090531164
1.7670000000000001,-0.05953021664085143
1.7675,-0.012791659900265448
1.768,0.027289393669470186
1.7685,0.0835033481637188
1.7690000000000001,0.1380854798048333
1.7695,0.14528028750511582
1.77,0.08053341676835163
1.7705,-0.03151876755237248
1.7710000000000001,-0.13273237577006614
1.7715,-0.16909524000910386
1.772,-0.12296638757765153
1.7725,-0.024170197940642315
1.7730000000000001,0.06912910147734941
1.7735,0.11163867048975222
1.774,0.10128377830206732
1.7745,0.06996984594153402
1.7750000000000001,0.04560365204536988
1.7755,0.026946021123740053
1.776,-0.002727186344028257
1.7765,-0.043512471778878535
1.7770000000000001,-0.07193688151388321
1.7775,-0.07043889748072438
1.778,-0.05337479466038364
1.7785,-0.050308909620041795
1.7790000000000001,-0.06528307659720878
1.7795,-0.06690182911211799
1.78,-0.025447730713978545
1.7805,0.04722692988449943
1.7810000000000001,0.10126380111389448
1.7815,0.0915396296304416
1.782,0.019472463271459066
1.7825,-0.061883862071164565
1.7830000000000001,-0.09020658203267667
1.7835,-0.05427700623710304
1.784,-0.00926786930384072
1.7845,-0.017817123720391292
1.7850000000000001,-0.0777577027573689
1.7855,-0.1239934918383149
1.786,-0.10392246128830565
1.7865,-0.03586278184652446
1.7870000000000001,0.016125581567991838
1.7875,0.018024110517056092
1.788,0.005935683762301209
1.7885,0.04633281347424102
1.7890000000000001,0.15585645069729598
1.7895,0.26500826714070236
1.79,0.2725212294019728
1.7905,0.14280151726012802
1.7910000000000001,-0.05345937297425526
1.7915,-0.19643837775091894
1.792,-0.2120857655033519
1.7925,-0.11931318959233159
1.793,-0.002035392629751283
1.7935,0.057124440006619065
1.794,0.02723244173275454
1.7945,-0.06311889606766385
1.795,-0.15212512632889108
1.7955,-0.18455414744871737
1.796,-0.14474241173097133
1.7965,-0.06246514580177508
1.797,0.01349097778551779
1.7975,0.05027983636624869
1.798,0.04448558013929989
1.7985,0.010034396421255438
1.799,-0.03973663076073857
1.7995,-0.09632391837002598
1.8,-0.1450994719836659
1.8005,-0.15765918296991402
1.801,-0.10551321146760496
1.8015,0.012297769757301926
1.802,0.15333239157982417
1.8025,0.24476700120306408
1.803,0.22602475879010114
1.8035,0.10173825936383524
1.804,-0.0428345249364368
1.8045,-0.10235644597440108
1.805,-0.04791486657537473
1.8055,0.041666594896915474
1.806,0.05786214185681296
1.8065,-0.02964622739257515
1.807,-0.15119571176097482
1.8075,-0.2164813713281223
1.808,-0.19765039461543207
1.8085,-0.1318434393743146
1.809,-0.06458224987970186
1.8095,-0.011878983274347107
1.81,0.02808498909019408
1.8105,0.050158171154488534
1.811,0.0424379359621124
1.8115,0.005239897210800275
1.812,-0.03885429511932865
1.8125,-0.055454034081520685
1.813,-0.021096814874740865
1.8135000000000001,0.056974903605252224
1.814,0.13914063981523647
1.8145,0.17607094800878895
1.815,0.14219410499913998
1.8155000000000001,0.05389421976326042
1.816,-0.04156744629446407
1.8165,-0.0967926823035461
1.817,-0.09207195721120325
1.8175000000000001,-0.04141020735386363
1.818,0.02393926790187709
1.8185,0.07609234202216263
1.819,0.09898282430038395
1.8195000000000001,0.08702290141482621
1.82,0.04445202803554055
1.8205,-0.013396226145879
1.821,-0.06380620610247356
1.8215000000000001,-0.08684025556405668
1.822,-0.07391076428633668
1.8225,-0.02994721826290063
1.823,0.026109396814571584
1.8235000000000001,0.06350924197871755
1.824,0.055376984433606516
1.8245,0.003133543714017672
1.825,-0.05736435976850695
1.8255000000000001,-0.08144260540508831
1.826,-0.05036770752957798
1.8265,0.015523122892542773
1.827,0.07162087647277646
1.8275000000000001,0.07837700314268434
1.828,0.02837266772466617
1.8285,-0.046316559260439816
1.829,-0.09618517311850547
1.8295000000000001,-0.09148215893942546
1.83,-0.0438542323741958
1.8305,0.003888412332942461
1.831,0.009481331417976763
1.8315000000000001,-0.03791678886107952
1.832,-0.10843160904637665
1.8325,-0.15378860774281616
1.833,-0.14518167806661067
1.8335000000000001,-0.0905018724959598
1.834,-0.0163001416058515
1.8345,0.05767226118735323
1.835,0.12055810919623203
1.8355000000000001,0.1562819698301027
1.836,0.14114169533620802
1.8365,0.062268324484396294
1.837,-0.060382182821755066
1.8375000000000001,-0.1732862737319316
1.838,-0.21986381657895826
1.8385,-0.18282081754158602
1.839,-0.09818748830922602
1.8395000000000001,-0.021260142264155554
1.84,0.020908070440476753
1.8405,0.036606237303702265
1.841,0.03761758202104955
1.8415000000000001,0.021954643024392283
1.842,-0.008192924102128253
1.8425,-0.032741336584113025
1.843,-0.03296629018828723
1.8435000000000001,-0.016318624530332816
1.844,-0.009147898558082092
1.8445,-0.024747508303345066
1.845,-0.04630247693483838
1.8455000000000001,-0.045148344730486595
1.846,-0.01324071023691352
1.8465,0.02725107323864434
1.847,0.048075158170149575
1.8475000000000001,0.0447624757939489
1.848,0.0389252219475103
1.8485,0.0521323047793312
1.849,0.07974446112695012
1.8495000000000001,0.09229614874923327
1.85,0.06652688992830065
1.8505,0.015358784412717999
1.851,-0.020092680708845113
1.8515000000000001,-0.011942887553216874
1.852,0.02660632488455088
1.8525,0.0567683917309981
1.853,0.050455357351991054
1.8535000000000001,0.007614189665977818
1.854,-0.055026874610207395
1.8545,-0.1203327606752855
1.855,-0.17095106746244582
1.8555000000000001,-0.18408800540999765
1.856,-0.14364185501966048
1.8565,-0.060186352289904654
1.857,0.03294284073888067
1.8575,0.10781499902535467
1.858,0.15815455165935122
1.8585,0.18441177437023212
1.859,0.17461433826463166
1.8595,0.11576635417180427
1.86,0.022707288446473683
1.8605,-0.06389011886385988
1.861,-0.11683716897465726
1.8615,-0.14501961554239218
1.862,-0.16806766760224012
1.8625,-0.1827577043530858
1.863,-0.16711278108354138
1.8635,-0.11164667011474819
1.864,-0.036337585254578295
1.8645,0.024803481369796484
1.865,0.05329071399190017
1.8655,0.05914622009021992
1.866,0.0641207343387206
1.8665,0.07298920020289835
1.867,0.06616456927972138
1.8675,0.025476022076360523
1.868,-0.03443318348843055
1.8685,-0.06709317235783634
1.869,-0.03326910289578533
1.8695,0.05679563249805805
1.87,0.14304936342877678
1.8705,0.16681101081949834
1.871,0.12567300681349647
1.8715,0.07089866871129763
1.872,0.04950256463619165
1.8725,0.059975068888506886
1.873,0.0677339365048754
1.8735,0.04802439227028789
1.874,0.0030012817955611306
1.8745,-0.050265607801261034
1.875,-0.09234445856347503
1.8755,-0.10723021355715258
1.8760000000000001,-0.09228051450416458
1.8765,-0.06663203033326566
1.877,-0.06147277203649462
1.8775,-0.09761418660434563
1.8780000000000001,-0.17187250397476928
1.8785,-0.2568731752695888
1.879,-0.3072704289224377
1.8795,-0.27873057349046737
1.8800000000000001,-0.16273817665759402
1.8805,-0.00821010600364604
1.881,0.10506979410025408
1.8815,0.1270925365000361
1.8820000000000001,0.07313673295252977
1.8825,0.0010221292143975818
1.883,-0.03867062155924488
1.8835,-0.03182684192983967
1.8840000000000001,0.0010621196836562226
1.8845,0.024594032142338906
1.885,0.018735121666831153
1.8855,0.0042711117997052414
1.8860000000000001,0.02836561368852698
1.8865,0.10561325869696737
1.887,0.18081909539288332
1.8875,0.1772955659159658
1.8880000000000001,0.08591000094159762
1.8885,-0.017076364748311687
1.889,-0.049913436956502875
1.8895,-0.007052759823590735
1.8900000000000001,0.04641795349806693
1.8905,0.047646841961136326
1.891,-0.005787693585931989
1.8915,-0.05890713368955323
1.8920000000000001,-0.04963341495563152
1.8925,0.03579934670794593
1.893,0.14531220742314369
1.8935,0.20010498776098853
1.8940000000000001,0.15926213533088826
1.8945,0.04993903210937082
1.895,-0.060693937062098274
1.8955,-0.11699510788511948
1.8960000000000001,-0.10562318192609807
1.8965,-0.054769062140190894
1.897,-0.01255035610877753
1.8975,-0.015503373340760272
1.8980000000000001,-0.06275101512364464
1.8985,-0.11480599846473498
1.899,-0.11998340749827172
1.8995,-0.05238147742683732
1.9000000000000001,0.06009878859101081
1.9005,0.14287413194495388
1.901,0.1317542818066958
1.9015,0.04099356522394515
1.9020000000000001,-0.040019636485809744
1.9025,-0.039753081888436084
1.903,0.014484736414154119
1.9035,0.030491191986421008
1.9040000000000001,-0.038421045159634834
1.9045,-0.1414375688134734
1.905,-0.19412726929628277
1.9055,-0.17146780604290407
1.9060000000000001,-0.11985321037388638
1.9065,-0.0912718361240547
1.907,-0.09042662353685456
1.9075,-0.0862892330340317
1.9080000000000001,-0.05642298263611972
1.9085,-0.012415249124470337
1.909,0.012000959925244897
1.9095,-0.0037682865719793476
1.9100000000000001,-0.04066767775198066
1.9105,-0.05310955972211562
1.911,-0.015591066820556568
1.9115,0.047597034710661935
1.9120000000000001,0.08727300850146065
1.9125,0.08020685054148541
1.913,0.04602107662444667
1.9135,0.017877779942361168
1.9140000000000001,0.010215337757537331
1.9145,0.017180828223980184
1.915,0.02927108392195036
1.9155,0.04147568010768386
1.9160000000000001,0.05016995718018467
1.9165,0.052182035176849745
1.917,0.04849656013753952
1.9175,0.04476334642932387
1.9180000000000001,0.04769431197463727
1.9185,0.061350175913650294
1.919,0.08259329981243123
1.9195,0.09751278668445995
1.92,0.08899057051482961
1.9205,0.05551873875681468
1.921,0.01762511567290486
1.9215,-0.004661164045071747
1.922,-0.017765168435978224
1.9225,-0.046935537944705744
1.923,-0.10184720429850991
1.9235,-0.15635232687478584
1.924,-0.16515841359699615
1.9245,-0.10276548330238418
1.925,0.00950852465218903
1.9255,0.11386874013931493
1.926,0.15647616648944981
1.9265,0.1226972129790445
1.927,0.040018086542874934
1.9275,-0.04576216106638193
1.928,-0.09711611633961219
1.9285,-0.10026392556591537
1.929,-0.07018324360802758
1.9295,-0.04275924093817898
1.93,-0.04925202353717393
1.9305,-0.08926426856580891
1.931,-0.13178711639077922
1.9315,-0.14451474309549023
1.932,-0.11777663872333623
1.9325,-0.06283035746989916
1.933,0.0006275750409866817
1.9335,0.05105426453965622
1.934,0.07191878529028327
1.9345,0.06378084292947836
1.935,0.045900116468132135
1.9355,0.03922712456227065
1.936,0.05054471601236628
1.9365,0.07450041933960717
1.937,0.10220145610260022
1.9375,0.12130268023385121
1.938,0.1149637743929255
1.9385000000000001,0.07321805542030754
1.939,0.008057617678696602
1.9395,-0.049613365053624486
1.94,-0.07223913616620789
1.9405000000000001,-0.05412553023309731
1.941,-0.010504950012276387
1.9415,0.03549351743896417
1.942,0.06321952271790547
1.9425000000000001,0.05732069642917707
1.943,0.009094062311900065
1.9435,-0.07622761039926228
1.944,-0.1704463149088982
1.9445000000000001,-0.22912924057191045
1.945,-0.22095263495175782
1.9455,-0.15412866455651564
1.946,-0.06877340460657554
1.9465000000000001,-0.0025589670555521797
1.947,0.034284315947690304
1.9475,0.054201532849401435
1.948,0.06836969360145598
1.9485000000000001,0.07109905702528974
1.949,0.051812599936713444
1.9495,0.02002242960924621
1.95,0.007329330177103866
1.9505000000000001,0.03719356876367212
1.951,0.09440153428215094
1.9515,0.12870608348812274
1.952,0.09431591964334878
1.9525000000000001,-0.005761797595458607
1.953,-0.11126074434571137
1.9535,-0.14866647053609663
1.954,-0.09466963605657366
1.9545000000000001,0.0022320012397362005
1.955,0.06678373475966083
1.9555,0.06499077762732466
1.956,0.029241759429768213
1.9565000000000001,0.01850585314758827
1.957,0.05380920444962347
1.9575,0.09623518759046709
1.958,0.09390994818294825
1.9585000000000001,0.04465553623610787
1.959,-0.0014288527132051386
1.9595,-0.001923599722937931
1.96,0.02938239680629242
1.9605000000000001,0.041615184359861994
1.961,0.004856704730613049
1.9615,-0.06345743936658507
1.962,-0.1245686843116357
1.9625000000000001,-0.15392851702005303
1.963,-0.14830461572690465
1.9635,-0.11193869800052209
1.964,-0.0483598193429508
1.9645000000000001,0.032234422526646093
1.965,0.10415195984039992
1.9655,0.13452183084205965
1.966,0.10656426766034886
1.9665000000000001,0.035411597108134796
1.967,-0.0401516460604687
1.9675,-0.08439050207848155
1.968,-0.08872200604305405
1.9685000000000001,-0.07318512927014796
1.969,-0.0642623550122488
1.9695,-0.07231933012107034
1.97,-0.09034200318324288
1.9705000000000001,-0.1064780003457518
1.971,-0.11047258413082914
1.9715,-0.09421083499339081
1.972,-0.056868410267930665
1.9725000000000001,-0.008429897653130044
1.973,0.03862577829345048
1.9735,0.07867035797045764
1.974,0.10889205542798952
1.9745000000000001,0.12169213233184213
1.975,0.11030884191817428
1.9755,0.08079466041978148
1.976,0.05140238293940309
1.9765000000000001,0.038235127003736546
1.977,0.042845174074233966
1.9775,0.05255015993799453
1.978,0.05014865413707341
1.9785000000000001,0.023573364666850765
1.979,-0.027802833310752402
1.9795,-0.08662039155643347
1.98,-0.1158755165611469
1.9805000000000001,-0.07805188320168265
1.981,0.028501110839270052
1.9815,0.15280537846815262
1.982,0.22259637619866007
1.9825000000000002,0.2006185215435277
1.983,0.11148332445573153
1.9835,0.014636255262656014
1.984,-0.04374894969045798
1.9845,-0.05123683997442229
1.985,-0.016375593656578022
1.9855,0.04367942673847994
1.986,0.10015420918088397
1.9865,0.11696551874449214
1.987,0.07581600797159462
1.9875,-0.004907648980227832
1.988,-0.08564405313171149
1.9885,-0.13859235140606563
1.989,-0.15931903552877855
1.9895,-0.15289082092361794
1.99,-0.1248784294626259
1.9905,-0.08963690476275599
1.991,-0.0727046977868564
1.9915,-0.09136239509295342
1.992,-0.13383769573645196
1.9925,-0.16448463628713966
1.993,-0.15232819295226796
1.9935,-0.09618231411234848
1.994,-0.023511375277909814
1.9945,0.035967578706276024
1.995,0.07489914791111237
1.9955,0.10341652684635247
1.996,0.12206658219947628
1.9965,0.11044268306528489
1.997,0.051525577238094936
1.9975,-0.03525686292809287
1.998,-0.09461359801246667
1.9985,-0.07650323762953204
1.999,0.01762601916276703
1.9995,0.12583707578622103
2.0,0.950232092871056
2.0005,0.6509584185117183
2.001,0.09873474010365837
2.0015,-0.23872792355967093
2.0020000000000002,-0.16777649743076825
2.0025,0.06774786061281515
2.003,0.11137026169567363
2.0035,-0.08632754612519783
2.004,-0.2546538357154058
2.0045,-0.18239350063756313
2.005,0.0060743971738273506
2.0055,0.02142670999570096
2.0060000000000002,-0.20562254305450994
2.0065,-0.4128479528808927
2.007,-0.30086878100968534
2.0075,0.10949800800454988
2.008,0.45970036228541483
2.0085,0.4189530166952908
2.009,0.05505069356615941
2.0095,-0.21844880123540095
2.0100000000000002,-0.08945454356175289
2.0105,0.31446038083477557
2.011,0.5730086267650434
2.0115,0.41154522203485433
2.012,-0.04993036714978909
2.0125,-0.45303821127976474
2.013,-0.5587094763402369
2.0135,-0.4383344096955164
2.0140000000000002,-0.31851508207260326
2.0145,-0.28267776252733556
2.015,-0.20494461770266562
2.0155,0.01399672946119783
2.016,0.24474576851046556
2.0165,0.24304293180236886
2.017,-0.05901253260032227
2.0175,-0.4454939692939706
2.0180000000000002,-0.6219897646495983
2.0185,-0.49386214950639645
2.019,-0.21750554957807988
2.0195,-0.0012258603126865195
2.02,0.10728188030840881
2.0205,0.2255842240112637
2.021,0.45519937426344076
2.0215,0.7521313443505275
2.0220000000000002,1.0100560515821402
2.0225,1.2053010393302555
2.023,1.3534363124189797
2.0235,1.3413692663924064
2.024,0.9533184524464853
2.0245,0.15646120718866116
2.025,-0.70857157062053
2.0255,-1.141948311406086
2.0260000000000002,-0.928293139259728
2.0265,-0.34046169694126
2.027,0.11485412087035211
2.0275,0.15553346565110443
2.028,-0.04975028251648391
2.0285,-0.08523565992126603
2.029,0.27567363939652073
2.0295,0.8114074322482524
2.0300000000000002,1.028811495624054
2.0305,0.6209059887075185
2.031,-0.23550218914904977
2.0315,-1.0231896610898605
2.032,-1.3101579392311757
2.0325,-1.0600833074809215
2.033,-0.5925666256241542
2.0335,-0.2893700123816087
2.0340000000000003,-0.3247194158477144
2.0345,-0.6120168944660774
2.035,-0.9348128098567925
2.0355,-1.1025884411933944
2.036,-1.025402138047234
2.0365,-0.7120453132865312
2.037,-0.24606341063167106
2.0375,0.2292107106956093
2.0380000000000003,0.541835440405836
2.0385,0.5749332178944749
2.039,0.36409859628777136
2.0395,0.10635387436980157
2.04,0.03750652886289134
2.0405,0.2605756883671382
2.041,0.6612406510056026
2.0415,0.9843442225734962
2.0420000000000003,1.0264357033981566
2.0425,0.7972052300917787
2.043,0.497987106800295
2.0435,0.32066842422909353
2.044,0.2686176818348781
2.0445,0.18092642083368143
2.045,-0.08882560896781096
2.0455,-0.5165643561080746
2.0460000000000003,-0.8923462926830329
2.0465,-0.9678404166369536
2.047,-0.6667271998129989
2.0475,-0.1596089252919665
2.048,0.2744909613319179
2.0485,0.44398243579780855
2.049,0.3254489631582549
2.0495,0.03141250137455746
2.05,-0.2580269530788336
2.0505,-0.3767490985399406
2.051,-0.25348855469066534
2.0515,0.057737484552565346
2.052,0.4196085493173102
2.0525,0.6868452453105068
2.053,0.7689156152498002
2.0535,0.6611241864122226
2.054,0.4337153776627744
2.0545,0.17811850565019133
2.055,-0.0528520550191217
2.0555,-0.25506842272303204
2.056,-0.4291318999377159
2.0565,-0.5429195243659551
2.057,-0.5472986494919215
2.0575,-0.42743436371128213
2.058,-0.24171546560447127
2.0585,-0.10440212815698063
2.059,-0.09597856397774779
2.0595,-0.16755540648941775
2.06,-0.16356461528926508
2.0605,0.021547837481324054
2.061,0.31115864379978897
2.0615,0.4863118543809152
2.062,0.3690184192060146
2.0625,-0.005511909505904954
2.063,-0.3835863387784718
2.0635,-0.49079790928599426
2.064,-0.2671700127962775
2.0645000000000002,0.09501075523014232
2.065,0.3354460284410641
2.0655,0.3184011816231928
2.066,0.0758871702162315
2.0665,-0.23954786044502144
2.067,-0.414709160620089
2.0675,-0.28979153150854614
2.068,0.09575230355299416
2.0685000000000002,0.49608691493941964
2.069,0.6543257332004704
2.0695,0.5146214017835642
2.07,0.2476148701757377
2.0705,0.09505837795034336
2.071,0.1896987519667428
2.0715,0.4760294351815748
2.072,0.7463395426424921
2.0725000000000002,0.7561129982465455
2.073,0.38665591292731577
2.0735,-0.2319579124557615
2.074,-0.7689304352828975
2.0745,-0.9171164407549962
2.075,-0.6181937107014199
2.0755,-0.10535297528244071
