tiempo_s,emg_mV
0.0,-0.006546459132350429
0.0005,0.04549121275686885
0.001,0.07409816494648806
0.0015,0.07417615526831421
0.002,0.06321736860359789
0.0025,0.06249610990781743
0.003,0.07297172346579679
0.0035,0.07817977185522158
0.004,0.07181453010647113
0.0045000000000000005,0.06798395306285643
0.005,0.07634707339960768
0.0055,0.07997293082494196
0.006,0.05236194131569391
0.006500000000000001,-0.006511777257045639
0.007,-0.06265843643367892
0.0075,-0.07903389258927934
0.008,-0.04751672268166456
0.0085,0.011450177360283004
0.009000000000000001,0.07127666497720105
0.0095,0.11279250254028787
0.01,0.12234197590346478
0.0105,0.09234610117197939
0.011,0.03129473671017871
0.0115,-0.03237241219558618
0.012,-0.06556135450785228
0.0125,-0.054960945851261156
0.013000000000000001,-0.016665024675073428
0.0135,0.019739378275161763
0.014,0.03430355405816937
0.0145,0.021050773190311574
0.015,-0.021875311955395268
0.0155,-0.08861888248946041
0.016,-0.15038830007717272
0.0165,-0.16463878535235865
0.017,-0.11431651485005767
0.0175,-0.03013007620455283
0.018000000000000002,0.035923534229357935
0.0185,0.05557033300597878
0.019,0.04088327823392494
0.0195,0.023744273127980844
0.02,0.02276836148524957
0.0205,0.028329637501383047
0.021,0.021892495892167737
0.021500000000000002,0.009026739213997843
0.022,0.01926593258458322
0.0225,0.0645372326620867
0.023,0.11224261917761759
0.0235,0.11533562173207548
0.024,0.06282016659812253
0.0245,-0.009698733412967874
0.025,-0.05307663850842741
0.025500000000000002,-0.040540483086555626
0.026000000000000002,0.019363816323415342
0.0265,0.08956814811261148
0.027,0.12361317998848764
0.0275,0.09331607041395114
0.028,0.01082032108999762
0.0285,-0.07668281581268949
0.029,-0.12182732231102447
0.029500000000000002,-0.11277553609163705
0.03,-0.07735818009224456
0.0305,-0.053652975675747804
0.031,-0.055888423187709535
0.0315,-0.06659409934819654
0.032,-0.05994194086495526
0.0325,-0.031020215059115768
0.033,-0.0007008031165145431
0.0335,0.00636097907012797
0.034,-0.016520951788423867
0.0345,-0.05782526894842523
0.035,-0.10072210165515633
0.035500000000000004,-0.13121372407966844
0.036000000000000004,-0.1400194552612627
0.0365,-0.12480954239021946
0.037,-0.09051663294409637
0.0375,-0.04472935724231445
0.038,0.005224736231043889
0.0385,0.050684427866058146
0.039,0.08413504424152793
0.0395,0.10636397482618541
0.04,0.12424616652031793
0.0405,0.13706719706761378
0.041,0.13192458181698083
0.0415,0.10050977074374776
0.042,0.058288516872721644
0.0425,0.0374191573608855
0.043000000000000003,0.053417885200261236
0.043500000000000004,0.08252119323410834
0.044,0.08287694623597626
0.0445,0.040235438571539134
0.045,-0.017549818027968497
0.0455,-0.056397209295048066
0.046,-0.07485265784632651
0.0465,-0.09297462972337961
0.047,-0.10715419438101728
0.0475,-0.07911887276114912
0.048,0.015271881658254431
0.0485,0.1378178855772659
0.049,0.20922780250249154
0.0495,0.18353007626741139
0.05,0.0929124535470518
0.0505,0.014364916268571514
0.051000000000000004,-0.0032685456210532825
0.051500000000000004,0.02423518234498035
0.052000000000000005,0.044594207497371696
0.0525,0.021917056814039895
0.053,-0.0364858113620425
0.0535,-0.09253355802496674
0.054,-0.11092075001836738
0.0545,-0.08691192016392653
0.055,-0.0465490411726622
0.0555,-0.01977965511164923
0.056,-0.014722989657807814
0.0565,-0.020422467193584204
0.057,-0.03112405486315619
0.0575,-0.058064868210739404
0.058,-0.10987809060460069
0.0585,-0.16423656268903652
0.059000000000000004,-0.17154495157604
0.059500000000000004,-0.09894216365828908
0.06,0.02814686189088954
0.0605,0.13712492053803144
0.061,0.16908860356591215
0.0615,0.1294770708811873
0.062,0.07636732715258072
0.0625,0.06185031986643467
0.063,0.08898914158572886
0.0635,0.12073189410775344
0.064,0.12028301570460015
0.0645,0.08177547033100564
0.065,0.02986927458414808
0.0655,-0.005919788250852902
0.066,-0.018222336212167258
0.0665,-0.024711964755296578
0.067,-0.04409231396411194
0.0675,-0.07182847658899053
0.068,-0.0836529208619152
0.0685,-0.06382839687654475
0.069,-0.02712971136538102
0.0695,-0.008781766833688066
0.07,-0.02973671702675941
0.07050000000000001,-0.07288677618409198
0.07100000000000001,-0.09758857756288747
0.07150000000000001,-0.07957612359156806
0.07200000000000001,-0.03355953031389915
0.0725,0.007290701473925487
0.073,0.030461270368949696
0.0735,0.05190366551064173
0.074,0.08199214845948383
0.0745,0.09836116226463186
0.075,0.06975150048199164
0.0755,0.00561984671479943
0.076,-0.037068343935838445
0.0765,-0.012972141169094134
0.077,0.05084286131102984
0.0775,0.07502603899859989
0.078,0.01900249838567413
0.0785,-0.06425659503954295
0.079,-0.08317271834187279
0.0795,-0.0111190302431633
0.08,0.08332819556597484
0.0805,0.11124876274561132
0.081,0.05534706063901916
0.0815,-0.018128718904172426
0.082,-0.031869666544196776
0.0825,0.02523404329089722
0.083,0.09189412357669484
0.0835,0.1003619832360724
0.084,0.04584273590644784
0.0845,-0.011820757560091717
0.085,-0.015162586937517701
0.0855,0.030292154023084876
0.08600000000000001,0.06764044242503865
0.08650000000000001,0.051127442901114255
0.08700000000000001,-0.01203878610621232
0.08750000000000001,-0.0728673740121936
0.088,-0.08258613195218596
0.0885,-0.03256853260092051
0.089,0.03289448982152228
0.0895,0.04634225639471433
0.09,-0.024643892607471934
0.0905,-0.13937451561009276
0.091,-0.20941057115005493
0.0915,-0.1750660495883933
0.092,-0.06391874323122265
0.0925,0.030807385534098515
0.093,0.03665909630872427
0.0935,-0.03196879625833792
0.094,-0.09374556697559328
0.0945,-0.08173388281523952
0.095,-0.0011254979879284643
0.0955,0.08890941935074625
0.096,0.13804262030919717
0.0965,0.14229429662044923
0.097,0.1276390362539985
0.0975,0.11082131091215891
0.098,0.08134370122569788
0.0985,0.02014378433215082
0.099,-0.06518231007447624
0.0995,-0.1275954801649513
0.1,-0.11239675540777648
0.1005,-0.010983226447148551
0.101,0.11589589257105215
0.1015,0.177842678109916
0.10200000000000001,0.13019086363554347
0.10250000000000001,0.014590019007308717
0.10300000000000001,-0.07759108237092216
0.10350000000000001,-0.08316198019541868
0.10400000000000001,-0.011477474828409027
0.1045,0.0764631882182957
0.105,0.1216739201827371
0.1055,0.10555781270659455
0.106,0.0518351233704718
0.1065,0.0007932349306698392
0.107,-0.019930063164606823
0.1075,-0.007828162316674447
0.108,0.019813939427289578
0.1085,0.037137479618518814
0.109,0.02169790375790131
0.1095,-0.028576535824527356
0.11,-0.0830065684917786
0.1105,-0.09777476837466811
0.111,-0.0649496916851176
0.1115,-0.03130700750872079
0.112,-0.04581161176026853
0.1125,-0.09385540144443671
0.113,-0.10899237387468079
0.1135,-0.05332055585341268
0.114,0.03309680470883315
0.1145,0.07153322778822577
0.115,0.02584772650342526
0.1155,-0.060507156126726844
0.116,-0.1060304477464422
0.1165,-0.06480700155073466
0.117,0.04216380367776918
0.11750000000000001,0.1579745320667649
0.11800000000000001,0.23489768842712394
0.11850000000000001,0.24902742992142632
0.11900000000000001,0.19533616028257428
0.11950000000000001,0.0920031902537438
0.12,-0.012802417055887565
0.1205,-0.06098900922500462
0.121,-0.03116787745812099
0.1215,0.03355690860051237
0.122,0.058922276278364286
0.1225,0.011586015258090906
0.123,-0.06545427475750275
0.1235,-0.09544976337408569
0.124,-0.04439446944680493
0.1245,0.04679591764663045
0.125,0.10279326002910957
0.1255,0.08337163328167428
0.126,0.01443662107505234
0.1265,-0.045167905304706726
0.127,-0.06177167291169883
0.1275,-0.050253366302735455
0.128,-0.04774979903034259
0.1285,-0.07477422747830784
0.129,-0.12066569827256639
0.1295,-0.15434190485266525
0.13,-0.14474737570134255
0.1305,-0.08459027244370737
0.131,-0.006270225556834623
0.1315,0.036764143256898
0.132,0.023587320238519338
0.1325,-0.002735852798423459
0.133,0.023220343350819152
0.1335,0.1123951090726638
0.134,0.19991399463623158
0.1345,0.20653552590048507
0.135,0.11556327135026523
0.1355,-0.011214049769739545
0.136,-0.0875133960145792
0.1365,-0.07430941696306004
0.137,-0.007159924012163296
0.1375,0.043514339667331585
0.138,0.039880143277355215
0.1385,0.004401798793480493
0.139,-0.015758900929126518
0.1395,-0.0008079320636243314
0.14,0.030423844241984528
0.1405,0.049346914159606396
0.14100000000000001,0.04335935812500603
0.14150000000000001,0.017983705956198272
0.14200000000000002,-0.010565870729057472
0.14250000000000002,-0.024731447725482324
0.14300000000000002,-0.019823268630633432
0.14350000000000002,-0.008353535526481264
0.14400000000000002,-0.0017046600339164228
0.1445,0.005423603533943324
0.145,0.020299158642023966
0.1455,0.031386802737208355
0.146,0.021403833177903012
0.1465,-0.0006178814623103261
0.147,-0.00025493223700131726
0.1475,0.038782109750357376
0.148,0.08184009760510269
0.1485,0.07100227413357117
0.149,-0.007345828002934958
0.1495,-0.09138647232225713
0.15,-0.09542214917324418
0.1505,0.0015868979489722485
0.151,0.12499656067660632
0.1515,0.16913186469906022
0.152,0.09611364941357012
0.1525,-0.02832420129203107
0.153,-0.09727746026999814
0.1535,-0.0618013177717129
0.154,0.030219541156505512
0.1545,0.08880338455683848
0.155,0.06836544758691834
0.1555,-0.0007420273412913486
0.156,-0.05676483320513917
0.1565,-0.06995218531900972
0.157,-0.058462216554096245
0.1575,-0.051614845014301684
0.158,-0.053344535478757754
0.1585,-0.047784768755545395
0.159,-0.028944021703673252
0.1595,-0.008795544883980821
0.16,0.0038416291391872347
0.1605,0.017078204325504137
0.161,0.039457062389608555
0.1615,0.057401459737237745
0.162,0.04089723144708704
0.1625,-0.02428714649801065
0.163,-0.10986335336935685
0.1635,-0.15373511767610906
0.164,-0.10722581487993209
0.1645,0.016225221817434524
0.165,0.14394967237870887
0.1655,0.20566885554077768
0.166,0.19362768679810827
0.1665,0.1580695057869302
0.167,0.14580572347265872
0.1675,0.15029116442348142
0.168,0.12476942829309483
0.1685,0.04118179108465995
0.169,-0.06883404325146003
0.1695,-0.13560746044723343
0.17,-0.1161101412525426
0.1705,-0.03536133528174269
0.171,0.03842096775964023
0.1715,0.05622661623460341
0.17200000000000001,0.022783871236530272
0.17250000000000001,-0.02280430886458926
0.17300000000000001,-0.04779087158798472
0.17350000000000002,-0.04688399909936738
0.17400000000000002,-0.03460214286687953
0.17450000000000002,-0.02533374884024547
0.17500000000000002,-0.021346636401011383
0.17550000000000002,-0.01576523037787426
0.176,-0.0009516453534763746
0.1765,0.025930249032626758
0.177,0.05750039415375341
0.1775,0.07360419451637293
0.178,0.05290980874089349
0.1785,-0.004210547350036884
0.179,-0.0653607562100278
0.1795,-0.08700743814917632
0.18,-0.05270046501527926
0.1805,0.009303336549463788
0.181,0.048928117051884046
0.1815,0.035624100258380614
0.182,-0.01922973788297171
0.1825,-0.07389201925743463
0.183,-0.0883343329865265
0.1835,-0.05136692539083209
0.184,0.015038754508778071
0.1845,0.07310217079579216
0.185,0.09487922773584488
0.1855,0.08133583004409917
0.186,0.05972281665038904
0.1865,0.05660535847660042
0.187,0.07286725094641523
0.1875,0.0887784486593879
0.188,0.08747626628821142
0.1885,0.06623030005209822
0.189,0.03303264303011328
0.1895,0.004058056066387044
0.19,-0.00010958283236169129
0.1905,0.030014981877474697
0.191,0.07600526891319366
0.1915,0.09666241832966287
0.192,0.05823939337759257
0.1925,-0.03470158245025443
0.193,-0.13565051210757795
0.1935,-0.1869607910507306
0.194,-0.1634108214403143
0.1945,-0.08967942657654562
0.195,-0.012265908831179182
0.1955,0.045109922767444445
0.196,0.09157863219678392
0.1965,0.13495241212451692
0.197,0.15276604132012217
0.1975,0.11360309961252106
0.198,0.024298053851568947
0.1985,-0.06092377780830138
0.199,-0.08670572013166458
0.1995,-0.047659479006525646
0.2,0.01049293986119316
0.2005,0.03799257297894265
0.201,0.02465228184260673
0.2015,-0.0023424216871140314
0.202,-0.015443529195967979
0.2025,-0.01520551862287606
0.203,-0.02454215689405568
0.20350000000000001,-0.05792528171918332
0.20400000000000001,-0.09684360690789401
0.20450000000000002,-0.10148195890084138
0.20500000000000002,-0.05224128771362406
0.20550000000000002,0.02587327448011203
0.20600000000000002,0.08677253767916919
0.20650000000000002,0.10593159279640527
0.20700000000000002,0.0931294702521703
0.20750000000000002,0.0696394706541532
0.20800000000000002,0.04601541504274557
0.2085,0.02436927648238751
0.209,0.010355605547693986
0.2095,0.010784912462156713
0.21,0.020027262214757167
0.2105,0.020551746687211974
0.211,0.006406024092409585
0.2115,0.0010099588181318158
0.212,0.03641868062360873
0.2125,0.10844422796009143
0.213,0.16324637589405044
0.2135,0.14260272080317543
0.214,0.043780097478463474
0.2145,-0.0724522874398388
0.215,-0.13482145377820037
0.2155,-0.12015484598085209
0.216,-0.06389531310256225
0.2165,-0.021524370477592644
0.217,-0.019483405865875027
0.2175,-0.034429716827980725
0.218,-0.01705930200017376
0.2185,0.056230359689128984
0.219,0.15085957064270583
0.2195,0.19968187883737554
0.22,0.16680865602909656
0.2205,0.08161404532511382
0.221,0.006185001973736583
0.2215,-0.02330918255612193
0.222,-0.017605772179757694
0.2225,-0.007154768035666316
0.223,-0.00797607479943873
0.2235,-0.015462099975060432
0.224,-0.02250252386395974
0.2245,-0.03408365088755061
0.225,-0.05803161898043061
0.2255,-0.08403504851925764
0.226,-0.08505743370270465
0.2265,-0.048159457159877746
0.227,0.005054540313288124
0.2275,0.04008322413046096
0.228,0.045745496181464174
0.2285,0.036579825729622616
0.229,0.023053872921737426
0.2295,-0.003969696591357058
0.23,-0.05287981029762348
0.2305,-0.10735969824043441
0.231,-0.13427735067071767
0.2315,-0.11202178817990677
0.232,-0.044758260644868084
0.2325,0.04564779538844117
0.233,0.13247709741910377
0.2335,0.19087051277492825
0.234,0.2040667051614902
0.23450000000000001,0.1732963701521002
0.23500000000000001,0.12069381329923684
0.23550000000000001,0.07450785018474014
0.23600000000000002,0.04706807161153151
0.23650000000000002,0.028496052930435882
0.23700000000000002,0.0035818844657744056
0.23750000000000002,-0.025743732332754447
0.23800000000000002,-0.03747267714333517
0.23850000000000002,-0.012593875434496901
0.23900000000000002,0.03920575403594141
0.23950000000000002,0.08157479140977823
0.24,0.08245050847172487
0.2405,0.044181517600064994
0.241,0.0037476913688245035
0.2415,-0.0003875654142988654
0.242,0.03268760832448281
0.2425,0.0622259051664388
0.243,0.04737334583370856
0.2435,-0.00840701756573315
0.244,-0.06254062038676815
0.2445,-0.08366085703194864
0.245,-0.08582083250919441
0.2455,-0.10454518595262585
0.246,-0.14689169286662343
0.2465,-0.17891233042724375
0.247,-0.16214958365372095
0.2475,-0.09125273869911393
0.248,0.006003331700214027
0.2485,0.09357130792703984
0.249,0.14446362855978245
0.2495,0.1439289606091743
0.25,0.0932812230119216
0.2505,0.01657534319137094
0.251,-0.0457955668422004
0.2515,-0.06153261441271277
0.252,-0.027630641725546058
0.2525,0.03333355635643213
0.253,0.09437102112073192
0.2535,0.13919484390545195
0.254,0.1640934786764131
0.2545,0.1743786369958242
0.255,0.17733513373663048
0.2555,0.17178854504198876
0.256,0.14501439224357876
0.2565,0.08541804464774823
0.257,0.000726058150652774
0.2575,-0.07802177977262001
0.258,-0.1156672757674251
0.2585,-0.10328710071378244
0.259,-0.07050900251734028
0.2595,-0.058728771673511426
0.26,-0.075773439728112
0.2605,-0.08439962154813656
0.261,-0.04526957395114652
0.2615,0.03289653710878181
0.262,0.09683313692885405
0.2625,0.10184770588794818
0.263,0.051802576452266116
0.2635,-0.015006326207346496
0.264,-0.06810189177281703
0.2645,-0.1030752333779536
0.265,-0.12271143120101939
0.2655,-0.11647966390301667
0.266,-0.07071520763847441
0.2665,0.005336910785693396
0.267,0.0767847398856466
0.2675,0.11072253348932931
0.268,0.10133812208046818
0.2685,0.06727055310753541
0.269,0.03178868216436505
0.2695,0.00867660429749972
0.27,0.0015922924325427763
0.2705,0.00977447619836952
0.271,0.029599514746719197
0.2715,0.04978227551170404
0.272,0.051636840976514664
0.2725,0.024286410927863537
0.273,-0.016869042177959474
0.2735,-0.03269013051608064
0.274,0.009677448737178433
0.2745,0.10191705132070134
0.275,0.18746717192876264
0.2755,0.19756422941280974
0.276,0.109432574327551
0.2765,-0.025088028018689878
0.277,-0.11675926098380393
0.2775,-0.1130683612149156
0.278,-0.03643441134087447
0.2785,0.04757673988451301
0.279,0.09121483819375312
0.2795,0.09361498210933317
0.28,0.08139126210468485
0.2805,0.07249370100363296
0.281,0.062027245561845315
0.28150000000000003,0.037224608628750704
0.28200000000000003,-0.00343614778016279
0.28250000000000003,-0.04899758264065328
0.28300000000000003,-0.08587513922293195
0.28350000000000003,-0.10105329555106995
0.28400000000000003,-0.08165449912159606
0.28450000000000003,-0.02674523257792385
0.28500000000000003,0.03657119227099978
0.28550000000000003,0.06414644825158973
0.28600000000000003,0.037737900216499844
0.28650000000000003,-0.007345795314633636
0.28700000000000003,-0.01514385576784162
0.28750000000000003,0.026825202405276215
0.28800000000000003,0.07238699027637081
0.2885,0.07296872257290962
0.289,0.032528193453209495
0.2895,-0.0066969327436266005
0.29,-0.01919925860879875
0.2905,-0.017499473492884506
0.291,-0.022642852897858674
0.2915,-0.03150340967131041
0.292,-0.020698884023861445
0.2925,0.0225724266383196
0.293,0.07978452910357418
0.2935,0.11273012469845395
0.294,0.09577866393546657
0.2945,0.03770336608143393
0.295,-0.026399724831725237
0.2955,-0.06366762408255396
0.296,-0.06582715960500078
0.2965,-0.049329357245413666
0.297,-0.03890871632688449
0.2975,-0.04715426478731724
0.298,-0.06133883026915055
0.2985,-0.052525253083499535
0.299,-0.008364742888401652
0.2995,0.0448175413754303
0.3,0.06535764364676382
0.3005,0.04289111339434515
0.301,0.010482743838300786
0.3015,0.006340544744983925
0.302,0.031556039859062815
0.3025,0.05274175046824088
0.303,0.0423961303729876
0.3035,0.007026959960594074
0.304,-0.02376531725763724
0.3045,-0.023955060851909623
0.305,0.013933663288852616
0.3055,0.07439366617074794
0.306,0.1227877637087976
0.3065,0.127090199203098
0.307,0.08668762026092322
0.3075,0.035717461541547355
0.308,0.013820969755146005
0.3085,0.03488719012155851
0.309,0.08006408631703765
0.3095,0.11401311561910407
0.31,0.11061977541418327
0.3105,0.07116686250647622
0.311,0.020798035746460067
0.3115,-0.012649889113764419
0.312,-0.017191418658661604
0.3125,0.0006492661223732408
0.313,0.0253185158032456
0.3135,0.04313841732445884
0.314,0.046311317647671435
0.3145,0.029684992803076647
0.315,-0.008613213568958732
0.3155,-0.055774237532234185
0.316,-0.08128539381458114
0.3165,-0.06373246140549801
0.317,-0.022041697492746246
0.3175,-0.0011330133669248833
0.318,-0.01929975603309622
0.3185,-0.04593901084197101
0.319,-0.04127359237796578
0.3195,-0.003795434840350947
0.32,0.0348632538175093
0.3205,0.05014136474559869
0.321,0.04240714453110279
0.3215,0.022206084827300392
0.322,-0.0023967170814129437
0.3225,-0.023123853457244114
0.323,-0.03151969775294593
0.3235,-0.026610752215519298
0.324,-0.014730560038263542
0.3245,0.0009064835077752446
0.325,0.023530581111385528
0.3255,0.0514320694305882
0.326,0.06982714856170778
0.3265,0.06372955619393696
0.327,0.037125522787017924
0.3275,0.008474319904047263
0.328,-0.013471982269447454
0.3285,-0.036075895536127375
0.329,-0.05930565831809538
0.3295,-0.05977015710328241
0.33,-0.014770572182324271
0.3305,0.05968703833051549
0.331,0.11120621466786688
0.3315,0.10107550371469376
0.332,0.04685136317831403
0.3325,0.006254350602835163
0.333,0.01822060410230383
0.3335,0.0654780665393033
0.334,0.09879308842324123
0.3345,0.0951248454678114
0.335,0.08261524541191838
0.3355,0.10068244283210288
0.336,0.14132731895591047
0.3365,0.14606783556249087
0.337,0.06936547938667759
0.3375,-0.061924442609728174
0.338,-0.16251953682916007
0.3385,-0.16396150399653756
0.339,-0.07401977355904435
0.3395,0.03425276095962283
0.34,0.083914212953447
0.3405,0.04713392097834027
0.341,-0.04544981344940556
0.3415,-0.13312838913971925
0.342,-0.1655565859748954
0.3425,-0.130418536642616
0.343,-0.053921978545210886
0.3435,0.024541616985507025
0.34400000000000003,0.08371147899227793
0.34450000000000003,0.12994699508208735
0.34500000000000003,0.17695002503553747
0.34550000000000003,0.21978640569169478
0.34600000000000003,0.2316763368392311
0.34650000000000003,0.18663416754092876
0.34700000000000003,0.08873911549927667
0.34750000000000003,-0.016733827473356312
0.34800000000000003,-0.06746900333728689
0.34850000000000003,-0.03475860690818392
0.34900000000000003,0.042554272879831566
0.34950000000000003,0.0831691210582984
0.35000000000000003,0.03424703379524044
0.35050000000000003,-0.07817763237433928
0.35100000000000003,-0.1694502852750092
0.35150000000000003,-0.16832527147615342
0.352,-0.07500552545862914
0.3525,0.04257153081255516
0.353,0.10475033988481455
0.3535,0.07881332916567127
0.354,-0.0035033333914299223
0.3545,-0.07681089055834853
0.355,-0.09266706047179214
0.3555,-0.04968373010510204
0.356,0.016465576575596587
0.3565,0.06663988807724722
0.357,0.08404372266222901
0.3575,0.07681747879379908
0.358,0.06162067080839689
0.3585,0.04379267968857008
0.359,0.015250864865345382
0.3595,-0.025620175760998613
0.36,-0.059694306845296946
0.3605,-0.06300675713247525
0.361,-0.03466842752418906
0.3615,0.0007159380137559245
0.362,0.019872560576356765
0.3625,0.02283721963401044
0.363,0.025292945738922542
0.3635,0.03648655416630066
0.364,0.05238545387884065
0.3645,0.06711989838771665
0.365,0.08186221105678666
0.3655,0.09948589524976512
0.366,0.11379837869631072
0.3665,0.10846571988515363
0.367,0.07113305125745635
0.3675,0.009401259104148293
0.368,-0.05172691890064515
0.3685,-0.08985312963215328
0.369,-0.09941628432603825
0.3695,-0.08719440309133299
0.37,-0.06060111825809071
0.3705,-0.024825578721769312
0.371,0.011803862767224364
0.3715,0.03813134366947491
0.372,0.05006006633283942
0.3725,0.05566242635184701
0.373,0.06658379929375126
0.3735,0.0873902849768586
0.374,0.11518781720489911
0.3745,0.14430630736156339
0.375,0.16544943662148567
0.3755,0.16304546451626006
0.376,0.12453743200862546
0.3765,0.058905977016710395
0.377,-0.002008806792784883
0.3775,-0.03215376061164085
0.378,-0.0384252636868081
0.3785,-0.048064046528935325
0.379,-0.07021313016643543
0.3795,-0.08279395834653241
0.38,-0.06152403973899637
0.3805,-0.013158574726321875
0.381,0.026444355724715783
0.3815,0.02518976028349533
0.382,-0.0166364707774257
0.3825,-0.06693178424493754
0.383,-0.0857626356487159
0.3835,-0.05197523739238991
0.384,0.021436419642225688
0.3845,0.08999301639309233
0.385,0.10357453999359391
0.3855,0.04721726190980328
0.386,-0.03568258778569109
0.3865,-0.07107589791566175
0.387,-0.020552498303673186
0.3875,0.07758980084127769
0.388,0.14274679563292042
0.3885,0.13137721187380516
0.389,0.07459830046914565
0.3895,0.03306492340248498
0.39,0.026115476253208997
0.3905,0.018486140604849068
0.391,-0.02606038063606196
0.3915,-0.09121391455067152
0.392,-0.11758995102905274
0.3925,-0.06810034871343412
0.393,0.02284943218417678
0.3935,0.07836778872799426
0.394,0.06039103238596609
0.3945,0.00975634091950975
0.395,-0.003674438760916176
0.3955,0.039790655865559646
0.396,0.09608755625979726
0.3965,0.11739967126060667
0.397,0.10320125294056702
0.3975,0.08495956722331431
0.398,0.0792299319286887
0.3985,0.07185582275095997
0.399,0.04118345307429897
0.3995,-0.01607197425345529
0.4,-0.07858893433787964
0.4005,-0.11105753714350204
0.401,-0.08769732215135634
0.4015,-0.01877711689858642
0.402,0.04783426663079804
0.4025,0.06447040363842153
0.403,0.02739402471554133
0.4035,-0.022260665230092357
0.404,-0.040788219026661264
0.4045,-0.019279792704412164
0.405,0.018129081934610995
0.4055,0.04182511850527584
0.406,0.03886148773713373
0.40650000000000003,0.015531597971532998
0.40700000000000003,-0.013031063718971822
0.40750000000000003,-0.03206024260445411
0.40800000000000003,-0.02971907358803524
0.40850000000000003,-0.00017542385722615298
0.40900000000000003,0.050251535153683864
0.40950000000000003,0.10297450449760788
0.41000000000000003,0.13533109832280057
0.41050000000000003,0.12871235926479907
0.41100000000000003,0.07677910414780827
0.41150000000000003,-0.0024397398221642844
0.41200000000000003,-0.06597109387690418
0.41250000000000003,-0.07458787800734575
0.41300000000000003,-0.031193539832620635
0.41350000000000003,0.016752754929129907
0.41400000000000003,0.02433785717754154
0.41450000000000004,-0.0002510047467360584
0.41500000000000004,-0.0031199518050741143
0.41550000000000004,0.04890957772320609
0.41600000000000004,0.11835666391899714
0.4165,0.131023591239789
0.417,0.0616217270950058
0.4175,-0.029999181694333278
0.418,-0.05777149362234414
0.4185,0.0021586870894683315
0.419,0.09004840225934323
0.4195,0.12642031349763247
0.42,0.08927872463957696
0.4205,0.02737149549143469
0.421,0.004852911436317343
0.4215,0.038207940222171
0.422,0.08406556048409015
0.4225,0.08293273523874241
0.423,0.01459761004262031
0.4235,-0.08340746850058764
0.424,-0.14578386956990233
0.4245,-0.13055754240881273
0.425,-0.052432753684997835
0.4255,0.02773145061509767
0.426,0.053084426794167645
0.4265,0.019440999467425613
0.427,-0.025054751723814495
0.4275,-0.03161452951667233
0.428,-0.001393340900339747
0.4285,0.01962223906483348
0.429,-0.002888528177999089
0.4295,-0.04705817232156407
0.43,-0.055029996060042635
0.4305,0.003146410604317076
0.431,0.09412206715681448
0.4315,0.15384340778802352
0.432,0.15055677725998753
0.4325,0.10932416719588137
0.433,0.07591471367468797
0.4335,0.06473561473533361
0.434,0.04911452333636008
0.4345,0.001776867442293939
0.435,-0.06494162369018533
0.4355,-0.10643131225692437
0.436,-0.08732544768340725
0.4365,-0.009502244697280485
0.437,0.09167042856575192
0.4375,0.16789985223513662
0.438,0.18324257786945264
0.4385,0.13706350923695965
0.439,0.06745315647813836
0.4395,0.023085980232535497
0.44,0.022157003724867213
0.4405,0.037909244331223974
0.441,0.02940047956226942
0.4415,-0.012341208803626923
0.442,-0.05478631944960286
0.4425,-0.06332382824688657
0.443,-0.04206487121018615
0.4435,-0.02728408081410891
0.444,-0.04510064936929979
0.4445,-0.08494467776539184
0.445,-0.1140618157516096
0.4455,-0.11049084103400526
0.446,-0.07995619523310442
0.4465,-0.04574454948097101
0.447,-0.024878135819885176
0.4475,-0.012550961953607451
0.448,0.00893649971718525
0.4485,0.04445219273621815
0.449,0.07538527548064347
0.4495,0.08022877522376555
0.45,0.059466733033094424
0.4505,0.033385380999375706
0.451,0.022868195329364006
0.4515,0.040869785354423004
0.452,0.09310926099295742
0.4525,0.16976656717600686
0.453,0.234880602064379
0.4535,0.2396037528267452
0.454,0.16114778274157976
0.4545,0.031147609719623354
0.455,-0.08141534384138813
0.4555,-0.12235188719054808
0.456,-0.09142263766760826
0.4565,-0.0336174868811035
0.457,0.0049382722938551395
0.4575,0.013850447996688631
0.458,0.01735939412781044
0.4585,0.04038121154535311
0.459,0.07655833025388226
0.4595,0.09225205293585599
0.46,0.06358086900255104
0.4605,0.00667736849916288
0.461,-0.03227517961502274
0.4615,-0.018703281930537562
0.462,0.03761674758041019
0.4625,0.09067335800949004
0.463,0.09769944146383727
0.4635,0.05107402103496815
0.464,-0.021004729078300623
0.4645,-0.0766227681124508
0.465,-0.0870554448325502
0.4655,-0.05394109235872571
0.466,-0.004124482049402218
0.4665,0.03473865454385384
0.467,0.05332855306768598
0.4675,0.058415144182164105
0.468,0.060983650498318165
0.4685,0.0689902371009573
0.46900000000000003,0.08183868000788116
0.46950000000000003,0.08625302877721185
0.47000000000000003,0.06557297686238414
0.47050000000000003,0.020674896656763544
0.47100000000000003,-0.023259956366795065
0.47150000000000003,-0.03900843824425291
0.47200000000000003,-0.02557541205249429
0.47250000000000003,-0.0089629516468399
0.47300000000000003,-0.014201594137725117
0.47350000000000003,-0.03903331352110316
0.47400000000000003,-0.0561712968654148
0.47450000000000003,-0.04168510568113222
0.47500000000000003,-0.001149749446832754
0.47550000000000003,0.03205237708990405
0.47600000000000003,0.023482595149560977
0.47650000000000003,-0.034009632457609816
0.47700000000000004,-0.1096172345436027
0.47750000000000004,-0.14948223600961133
0.47800000000000004,-0.11429981945970755
0.47850000000000004,-0.015710321642641745
0.47900000000000004,0.08579457976349736
0.47950000000000004,0.12885410906721506
0.48,0.09997772741938599
0.4805,0.033410139910725695
0.481,-0.028625016700564606
0.4815,-0.06282639625114096
0.482,-0.05980069848318236
0.4825,-0.018814041727932076
0.483,0.04220283108174829
0.4835,0.08942049451715547
0.484,0.10108801556771409
0.4845,0.08762363594384008
0.485,0.07646375810431998
0.4855,0.07914370639484013
0.486,0.07749225817397393
0.4865,0.045572792329802825
0.487,-0.011126588725534996
0.4875,-0.041949645748837076
0.488,0.009035313774749273
0.4885,0.1379560613621139
0.489,0.2630946588855684
0.4895,0.29056079767437626
0.49,0.20551245811524727
0.4905,0.089330078664865
0.491,0.040346630085352685
0.4915,0.08287398003371237
0.492,0.15571886628400317
0.4925,0.18004183811811228
0.493,0.13023971262461742
0.4935,0.04250756064120913
0.494,-0.03268499468937268
0.4945,-0.07430492027995976
0.495,-0.09016589430960352
0.4955,-0.09171695632856364
0.496,-0.08279510923183933
0.4965,-0.06635963799927957
0.497,-0.04984486788151644
0.4975,-0.043136011178706635
0.498,-0.05516979465000688
0.4985,-0.0896133238743486
0.499,-0.13865463053368562
0.4995,-0.18123802263485167
0.5,-0.19237566432545414
0.5005000000000001,-0.15957802167378116
0.501,-0.09284105321398105
0.5015000000000001,-0.01848158312073985
0.502,0.03784295120746311
0.5025000000000001,0.06444276585531171
0.503,0.06475848876890967
0.5035000000000001,0.04908940764188763
0.504,0.024849303005109256
0.5045000000000001,-0.007170020572251835
0.505,-0.046748789546307117
0.5055000000000001,-0.0828122004867166
0.506,-0.09079257599937415
0.5065000000000001,-0.04950870388903759
0.507,0.03479964882898826
0.5075000000000001,0.12520638575216594
0.508,0.18047456079160726
0.5085000000000001,0.18693634319417876
0.509,0.1651079340421183
0.5095000000000001,0.14537773597462214
0.51,0.13632009709726772
0.5105000000000001,0.11766143376786166
0.511,0.06869714964778983
0.5115000000000001,0.002249917792146564
0.512,-0.04058910839363433
0.5125,-0.033018889728213575
0.513,0.011457282093610044
0.5135,0.05923234901823905
0.514,0.0889691231183094
0.5145,0.0961340545133949
0.515,0.07821881103284142
0.5155,0.03180145588272265
0.516,-0.03355098526903886
0.5165,-0.086415371004298
0.517,-0.08643718554589751
0.5175,-0.013760632567856928
0.518,0.10612684254777298
0.5185,0.20586299910791075
0.519,0.21630064333189766
0.5195,0.11943474331477816
0.52,-0.02995256701107571
0.5205,-0.1373448757611289
0.521,-0.13325805416879194
0.5215,-0.019963726442905033
0.522,0.13233567178286265
0.5225,0.23105150517715972
0.523,0.21568300546928998
0.5235,0.0929732968405883
0.524,-0.06580570253665988
0.5245,-0.17093249161870455
0.525,-0.17619709800528796
0.5255,-0.10453682965549445
0.526,-0.01611680741675017
0.5265,0.04275738777549
0.527,0.06171120850972882
0.5275,0.05588729288378883
0.528,0.047356664020236826
0.5285,0.05011144439606643
0.529,0.06059217498920666
0.5295,0.06149070520394195
0.53,0.038203133600881414
0.5305,-0.01096691388520838
0.531,-0.07987513168375693
0.5315,-0.15631098815111732
0.532,-0.2112467193640112
0.5325,-0.20352322977100126
0.533,-0.11775942810147658
0.5335,0.004956071250990014
0.534,0.0933600056388996
0.5345,0.10967535514931753
0.535,0.07998987776741914
0.5355,0.05892312723196827
0.536,0.07057910682700486
0.5365,0.0901749260486569
0.537,0.08185395320877646
0.5375,0.04441617632899239
0.538,0.010996102056674168
0.5385,0.008479598014850608
0.539,0.03042596240697934
0.5395,0.05250440579829606
0.54,0.0629677706214463
0.5405,0.06891993977743577
0.541,0.07677584099782356
0.5415,0.07725720740412878
0.542,0.05634671374917722
0.5425,0.017975778322394578
0.543,-0.01466923313522736
0.5435,-0.025693184163789816
0.544,-0.026679433789191104
0.5445,-0.04000912387185661
0.545,-0.06219811885889722
0.5455,-0.05503228027215784
0.546,0.014045073970579627
0.5465,0.12020597251127296
0.547,0.18271115416150838
0.5475,0.13645558298797686
0.548,0.0073763748237872274
0.5485,-0.09646772982003939
0.549,-0.08324660248707631
0.5495,0.033047148005652595
0.55,0.1470252859115076
0.5505,0.16283764849482593
0.551,0.07432210427862652
0.5515,-0.048000401255649625
0.552,-0.1292805329615178
0.5525,-0.14035295607921547
0.553,-0.09435187859304967
0.5535,-0.022602816322034175
0.554,0.04088725749866497
0.5545,0.07324985022660904
0.555,0.07855958257302251
0.5555,0.08342893473068237
0.556,0.1054250918303122
0.5565,0.12970930405028272
0.557,0.12591738650693873
0.5575,0.08352712838855915
0.558,0.020571488774348074
0.5585,-0.03717831293026192
0.559,-0.07173527242168899
0.5595,-0.07038698084029989
0.56,-0.027286745356991424
0.5605,0.04024875835585228
0.561,0.08658748528263598
0.5615,0.06929322640087085
0.562,-0.005933934474449721
0.5625,-0.08172642806272554
0.5630000000000001,-0.09940504222715331
0.5635,-0.049732086704623396
0.5640000000000001,0.027469839953275843
0.5645,0.0846883349684801
0.5650000000000001,0.10229618186667215
0.5655,0.0919787128320349
0.5660000000000001,0.07744512778371626
0.5665,0.07410267408132307
0.5670000000000001,0.08012714930525795
0.5675,0.07986544870302227
0.5680000000000001,0.05605080430837706
0.5685,0.005764607458803447
0.5690000000000001,-0.050308854683462405
0.5695,-0.0790298069352076
0.5700000000000001,-0.06464153850884448
0.5705,-0.028325981806979462
0.5710000000000001,-0.009088710767488177
0.5715,-0.021021292623136005
0.5720000000000001,-0.03760023361071303
0.5725,-0.025698863728981388
0.5730000000000001,0.012591845874601338
0.5735,0.04511273880341887
0.5740000000000001,0.0528593247264195
0.5745,0.050762695704073345
0.5750000000000001,0.06058526979738064
0.5755,0.07681486008081455
0.5760000000000001,0.07111842402327495
0.5765,0.029660611099509775
0.577,-0.02171526931112626
0.5775,-0.03898105772395
0.578,-0.01033306017713274
0.5785,0.02432645266806084
0.579,0.016383275604991476
0.5795,-0.03165257651867342
0.58,-0.0639338787726499
0.5805,-0.036978893101031175
0.581,0.022287159574868667
0.5815,0.0429064040164831
0.582,-0.0017060254786209648
0.5825,-0.05081705008890905
0.583,-0.019787340149266034
0.5835,0.09969847773103574
0.584,0.21930656404407192
0.5845,0.23623452506583453
0.585,0.1283620798272345
0.5855,-0.03029709213347765
0.586,-0.13722994725096077
0.5865,-0.13946621353102473
0.587,-0.055740480402130504
0.5875,0.056179290007987166
0.588,0.13898266144369434
0.5885,0.15481653592293226
0.589,0.09573836755529158
0.5895,-0.0085161685518293
0.59,-0.102736297028262
0.5905,-0.1391451487126851
0.591,-0.10246214010430224
0.5915,-0.010650566722088433
0.592,0.09646905896828173
0.5925,0.17168402567872154
0.593,0.18151304525271703
0.5935,0.12627875605796077
0.594,0.04149252270555403
0.5945,-0.023826495364401276
0.595,-0.03917447837872519
0.5955,-0.014147615675334553
0.596,0.009785857634732598
0.5965,-0.002858320733384703
0.597,-0.045590808360178425
0.5975,-0.0745319767797982
0.598,-0.05351909358214997
0.5985,0.007596652457446623
0.599,0.06396199256457155
0.5995,0.08267449614753333
0.6,0.07241634373340076
0.6005,0.06422625481291148
0.601,0.06833938188649186
0.6015,0.06055065407523554
0.602,0.01796023483836802
0.6025,-0.03891579688163296
0.603,-0.05646037720851948
0.6035,-0.008128846320265108
0.604,0.06549963939590114
0.6045,0.09046685706270169
0.605,0.03509000806082295
0.6055,-0.05544148569516738
0.606,-0.10351240342677484
0.6065,-0.07322525934813016
0.607,0.002980452490180729
0.6075,0.06351137290175263
0.608,0.07206209226585582
0.6085,0.036406565379467244
0.609,-0.009246908247157893
0.6095,-0.03018685663753652
0.61,-0.009689068073250295
0.6105,0.04044983915913054
0.611,0.08355357577972773
0.6115,0.08553054294969764
0.612,0.050269984388778374
0.6125,0.020484974921544184
0.613,0.030070337092146206
0.6135,0.05949062104183131
0.614,0.054396084630796995
0.6145,-0.007888263776905888
0.615,-0.08274926270172848
0.6155,-0.09773385666406716
0.616,-0.025190671439896638
0.6165,0.08551191189982062
0.617,0.144852182574359
0.6175,0.09756071549395699
0.618,-0.025543548748819353
0.6185,-0.1260698709442691
0.619,-0.12009944512732638
0.6195,-0.012025645886210946
0.62,0.11334451597406947
0.6205,0.17164451087633875
0.621,0.14736699888555074
0.6215,0.08688684857337756
0.622,0.041576131761543504
0.6225,0.02966064020766252
0.623,0.044405046000581525
0.6235,0.07739975144982547
0.624,0.11967351266569658
0.6245,0.146927452818077
0.625,0.1262182332484569
0.6255000000000001,0.05145013322701977
0.626,-0.038116047370133445
0.6265000000000001,-0.09144690158257866
0.627,-0.09529957460187537
0.6275000000000001,-0.07832484932828292
0.628,-0.06916328908927961
0.6285000000000001,-0.06479959505020921
0.629,-0.044072139067664544
0.6295000000000001,-0.0017399869252295204
0.63,0.04133343040388051
0.6305000000000001,0.059907223084927894
0.631,0.04704880677684139
0.6315000000000001,0.014283057120949905
0.632,-0.022464380502615972
0.6325000000000001,-0.053247404684624564
0.633,-0.07448616964898977
0.6335000000000001,-0.08375192453477387
0.634,-0.0785416198014958
0.6345000000000001,-0.06276357360878915
0.635,-0.049430187386146504
0.6355000000000001,-0.04938277018245556
0.636,-0.05823685610750363
0.6365000000000001,-0.0602781430191259
0.637,-0.045757734138784485
0.6375000000000001,-0.02149619420769082
0.638,-0.004055041592120822
0.6385000000000001,-0.0025785933464177856
0.639,-0.007857735834602805
0.6395000000000001,-0.0004950386012855697
0.64,0.02796007977434204
0.6405,0.06628292845244058
0.641,0.10092209900237735
0.6415,0.1355868179700606
0.642,0.18174406558430173
0.6425,0.23112041022828517
0.643,0.2512436945672808
0.6435,0.21520017233607944
0.644,0.1309227290106589
0.6445,0.0360453833972195
0.645,-0.033970830989612844
0.6455,-0.0683525045860277
0.646,-0.07400083190655396
0.6465,-0.05488091231381589
0.647,-0.006408333050645705
0.6475,0.06905286197715137
0.648,0.14906772329514062
0.6485,0.20264205324182308
0.649,0.21447734972133323
0.6495,0.19097512277151285
0.65,0.1430693843535774
0.6505,0.07277422290493592
0.651,-0.017194908033706265
0.6515,-0.10435484923440243
0.652,-0.1479636131273659
0.6525,-0.12053856148568308
0.653,-0.04011751519987491
0.6535,0.036218036977266874
0.654,0.057910398110561055
0.6545,0.021521628220161265
0.655,-0.0324711397263691
0.6555,-0.060187140722297805
0.656,-0.05243839077365916
0.6565,-0.036591890512412066
0.657,-0.04335230943301175
0.6575,-0.07353307360921207
0.658,-0.09843395885225423
0.6585,-0.09038023239547424
0.659,-0.049966212118781814
0.6595,-0.004042140135980775
0.66,0.020567308658702516
0.6605,0.020325807162876797
0.661,0.013517077661811783
0.6615,0.01766564408747645
0.662,0.028992307672415604
0.6625,0.024721618609395653
0.663,-0.01254127613438533
0.6635,-0.0713285937203028
0.664,-0.1123584319627872
0.6645,-0.09767322999583099
0.665,-0.02700113141039493
0.6655,0.05437779192760394
0.666,0.0938571170772008
0.6665,0.08141455435672823
0.667,0.054808198815056205
0.6675,0.05551052692924617
0.668,0.08897033558539343
0.6685,0.12771030409236533
0.669,0.14215643586056645
0.6695,0.12598470495300382
0.67,0.09827003077633707
0.6705,0.08186649165961919
0.671,0.07709162166300412
0.6715,0.06109233945613836
0.672,0.017053670884490293
0.6725,-0.04167045154148023
0.673,-0.08139615307309608
0.6735,-0.07886976559793937
0.674,-0.04100289078745686
0.6745,0.002228322971421274
0.675,0.02417600126051484
0.6755,0.023318262331464404
0.676,0.018985263707241285
0.6765,0.02678139365223086
0.677,0.04207228229751107
0.6775,0.048505307159867936
0.678,0.03951473433966722
0.6785,0.027583573074588037
0.679,0.029681796647304512
0.6795,0.045471259129462836
0.68,0.05736707010833754
0.6805,0.053875175666006
0.681,0.041458879453792064
0.6815,0.027270097335580286
0.682,0.004611138002914292
0.6825,-0.03190918651706431
0.683,-0.06716274529183079
0.6835,-0.07499895997603785
0.684,-0.04433857442108026
0.6845,0.008862722008957984
0.685,0.05140402953822802
0.6855,0.053611732655499976
0.686,0.008886352112618909
0.6865,-0.05931565941995315
0.687,-0.10925361688725309
0.6875,-0.10621049777199898
0.6880000000000001,-0.04682685001115702
0.6885,0.03512610515729808
0.6890000000000001,0.09072434720839874
0.6895,0.09198930871289092
0.6900000000000001,0.05160359945821834
0.6905,0.009155956593801294
0.6910000000000001,-0.0014631995684253013
0.6915,0.026003686291282278
0.6920000000000001,0.07364762861276929
0.6925,0.1173103470388869
0.6930000000000001,0.13829551125841819
0.6935,0.12374128458291274
0.6940000000000001,0.0691660241260437
0.6945,-0.010776853148267495
0.6950000000000001,-0.07998212360425931
0.6955,-0.10137261374292765
0.6960000000000001,-0.06464514652149209
0.6965,0.007720604519911049
0.6970000000000001,0.08054898089288183
0.6975,0.12831942296579252
0.6980000000000001,0.14139680688880102
0.6985,0.12161230299696116
0.6990000000000001,0.07808948962379553
0.6995,0.023644223179611398
0.7000000000000001,-0.029911815376502032
0.7005,-0.07472728689446714
0.7010000000000001,-0.10547840826144973
0.7015,-0.11383644353465325
0.7020000000000001,-0.08714423556381298
0.7025,-0.02398220002868245
0.7030000000000001,0.044134897850432384
0.7035,0.06315135037324052
0.704,0.007999603650445846
0.7045,-0.08016628664253109
0.705,-0.12526833860580475
0.7055,-0.0886416957556965
0.706,-0.004397452539462228
0.7065,0.05521729207195217
0.707,0.04696669431127938
0.7075,-0.0023031874978042075
0.708,-0.01675591203122779
0.7085,0.05465876844983234
0.709,0.17619987444398758
0.7095,0.24750475418107784
0.71,0.20116349131719877
0.7105,0.07510168010848316
0.711,-0.02085554841940144
0.7115,-0.008961060586481927
0.712,0.08857310585714091
0.7125,0.17764589410056775
0.713,0.17870893282155303
0.7135,0.0877403533595931
0.714,-0.03495658931219185
0.7145,-0.12131512216974498
0.715,-0.13791614162390287
0.7155,-0.09116625597245712
0.716,-0.01635331272849008
0.7165,0.03765232766447477
0.717,0.03822227850037355
0.7175,-0.0010798514840472556
0.718,-0.030207802027637627
0.7185,-0.013449954093088714
0.719,0.03272891600853536
0.7195,0.05799226549872749
0.72,0.031104816277960776
0.7205,-0.030258409377916823
0.721,-0.08048974629159714
0.7215,-0.08936888533977827
0.722,-0.06097524040964936
0.7225,-0.016621778912437796
0.723,0.028128233381098128
0.7235,0.06520931585941211
0.724,0.08417683647948779
0.7245,0.07398978457650658
0.725,0.033803303123780194
0.7255,-0.025491627968426515
0.726,-0.087218294385165
0.7265,-0.12938826437977638
0.727,-0.1271132806196431
0.7275,-0.07070702130696778
0.728,0.01591968606329348
0.7285,0.08583932551023567
0.729,0.10571426277814255
0.7295,0.08240783774932069
0.73,0.05318990006483207
0.7305,0.04889019781337134
0.731,0.06383787272851492
0.7315,0.06058267492715122
0.732,0.006961796902600442
0.7325,-0.08618667002492383
0.733,-0.1630117068054115
0.7335,-0.1656733819300957
0.734,-0.08625269603807562
0.7345,0.02697010718121141
0.735,0.11697110104795037
0.7355,0.16350411521101935
0.736,0.17834635108228197
0.7365,0.17179868791031078
0.737,0.14240988132027427
0.7375,0.09449944452243424
0.738,0.04489431013376095
0.7385,0.006848701551790397
0.739,-0.01983516684747112
0.7395,-0.0377421279626921
0.74,-0.04011921885760331
0.7405,-0.0156904334845594
0.741,0.03649993156012555
0.7415,0.09683804238368564
0.742,0.1304300678216555
0.7425,0.10867746439898614
0.743,0.030520396527382934
0.7435,-0.0757786898178906
0.744,-0.16806161614322776
0.7445,-0.20711431366071675
0.745,-0.17006460562388098
0.7455,-0.06354182481340363
0.746,0.07138634638882707
0.7465,0.17638051040919908
0.747,0.2104930851386807
0.7475,0.17595478442762605
0.748,0.11224755770761911
0.7485,0.06237322919803392
0.749,0.040622541391736475
0.7495,0.031182317121136498
0.75,0.01618450446661383
0.7505000000000001,-0.0009322045201110053
0.751,-0.004459940024697578
0.7515000000000001,0.006718406580504068
0.752,0.012727867223664893
0.7525000000000001,-0.0025632252934181445
0.753,-0.02742466703954264
0.7535000000000001,-0.032646130772262055
0.754,-0.00797408731722961
0.7545000000000001,0.020037579296653032
0.755,0.015212661111805302
0.7555000000000001,-0.024142159883711236
0.756,-0.05495478756887932
0.7565000000000001,-0.027640235288124662
0.757,0.06231308034210647
0.7575000000000001,0.15833382168049948
0.758,0.18188826179368553
0.7585000000000001,0.0988555590129883
0.759,-0.04422531404053655
0.7595000000000001,-0.1520826877794454
0.76,-0.157752645594985
0.7605000000000001,-0.07688388492291805
0.761,0.008448939605928619
0.7615000000000001,0.021290231691232515
0.762,-0.04463158797502932
0.7625000000000001,-0.12209402139378431
0.763,-0.13480169041160492
0.7635000000000001,-0.07006774498500105
0.764,0.01254571848199483
0.7645000000000001,0.044895916595669424
0.765,0.01639136311125159
0.7655000000000001,-0.025650258259130174
0.766,-0.0316145091201581
0.7665000000000001,0.0042067732836497404
0.767,0.04853399707291235
0.7675000000000001,0.06764210307320637
0.768,0.05428413088610708
0.7685,0.021382540129245398
0.769,-0.018056721211781198
0.7695,-0.05654171713587569
0.77,-0.08271869843554996
0.7705,-0.07770106775679765
0.771,-0.02797036002591463
0.7715,0.057203715275945505
0.772,0.14536321892637158
0.7725,0.20294477848847928
0.773,0.21899698245700433
0.7735,0.20583570982983374
0.774,0.17701387636969315
0.7745,0.128765881081183
0.775,0.04919574427284723
0.7755,-0.05283438805715844
0.776,-0.13552035881818178
0.7765,-0.15014245244332647
0.777,-0.08401399260660836
0.7775,0.021209524229154713
0.778,0.09727672652056411
0.7785,0.1032078246325427
0.779,0.05677923133446593
0.7795,0.012679910361291858
0.78,0.010106965658992684
0.7805,0.04248661440383049
0.781,0.07310680697883153
0.7815,0.0712852395838845
0.782,0.03284829780221565
0.7825,-0.022503333533038287
0.783,-0.06409050946333303
0.7835,-0.06762157202050892
0.784,-0.03397754495367043
0.7845,0.007231793188715593
0.785,0.02262994827948796
0.7855,0.009198574248051952
0.786,-0.0020429336795791068
0.7865,0.01746733030647553
0.787,0.058461137533951976
0.7875,0.08396625631260975
0.788,0.07299177488761764
0.7885,0.04345299991508481
0.789,0.027760138075336636
0.7895,0.03323179581018304
0.79,0.03497224186484116
0.7905,0.0075462073852444415
0.791,-0.043133644314122116
0.7915,-0.08328761318201316
0.792,-0.08335769584644645
0.7925,-0.04402038966788717
0.793,0.005277623400414974
0.7935,0.029185962524472468
0.794,0.012483154136903641
0.7945,-0.027681357574418773
0.795,-0.05390491148467974
0.7955,-0.040203669854656086
0.796,0.003148271363220512
0.7965,0.0400612994363258
0.797,0.046620242933649886
0.7975,0.031063409425861277
0.798,0.010350503112819362
0.7985,-0.020948094742661717
0.799,-0.08004990397369612
0.7995,-0.15504576762233044
0.8,-0.19509114583823522
0.8005,-0.15643217942802115
0.801,-0.05305297987671067
0.8015,0.04974944524154418
0.802,0.09374472745586815
0.8025,0.07730247508642539
0.803,0.049900537127103795
0.8035,0.06149505261373795
0.804,0.1162781587728263
0.8045,0.17288184469406417
0.805,0.18737118762570518
0.8055,0.15413073156242102
0.806,0.10458904587535811
0.8065,0.06908217524947355
0.807,0.04520393078564566
0.8075,0.007462689147146003
0.808,-0.05420410441706834
0.8085,-0.11308970633601605
0.809,-0.12590618990935815
0.8095,-0.0711201585303519
0.81,0.030943921901896262
0.8105,0.12862764152955483
0.811,0.17153015945912206
0.8115,0.145353417531364
0.812,0.08003085417204242
0.8125,0.018765502376620537
0.8130000000000001,-0.020646004029601504
0.8135,-0.04867505193229894
0.8140000000000001,-0.07438463283712234
0.8145,-0.08697598495348605
0.8150000000000001,-0.06949404398349988
0.8155,-0.021660860857721474
0.8160000000000001,0.03417664108436066
0.8165,0.06652520561710444
0.8170000000000001,0.0580667203335773
0.8175,0.02188918260480965
0.8180000000000001,-0.009072184524727845
0.8185,-0.013492686512970455
0.8190000000000001,0.0003347677358263553
0.8195,0.007657290255493797
0.8200000000000001,-0.007503118596820469
0.8205,-0.03908256845898182
0.8210000000000001,-0.06456402690430636
0.8215,-0.06530723335448799
0.8220000000000001,-0.046762573058732465
0.8225,-0.03470077823461283
0.8230000000000001,-0.04305508240970077
0.8235,-0.04950179551399053
0.8240000000000001,-0.01724479490533224
0.8245,0.056043150930437026
0.8250000000000001,0.12493654919606706
0.8255,0.14136720918626317
0.8260000000000001,0.10435709486433158
0.8265,0.05347926427210192
0.8270000000000001,0.019591645714573894
0.8275,-0.0008824459585838771
0.8280000000000001,-0.021864521455142054
0.8285,-0.03616637103236961
0.8290000000000001,-0.020232259185220182
0.8295,0.03500769463321532
0.8300000000000001,0.10588442905400494
0.8305,0.14874218652143711
0.8310000000000001,0.1308972313629342
0.8315,0.05576315528770689
0.8320000000000001,-0.035603748338840314
0.8325,-0.09133268580483361
0.833,-0.08776438259456354
0.8335,-0.04630153910903357
0.834,-0.009902114485834824
0.8345,-0.004041898339368172
0.835,-0.02131379323203228
0.8355,-0.038080878358655805
0.836,-0.03856193166346847
0.8365,-0.02067914239057215
0.837,0.014473909851775772
0.8375,0.06527064244171778
0.838,0.1173704606984573
0.8385,0.14266549166582837
0.839,0.12387023048348825
0.8395,0.07544452555862625
0.84,0.02952585881828656
0.8405,0.003712288234233671
0.841,-0.008639214996612282
0.8415,-0.01979345386067126
0.842,-0.03184344969638283
0.8425,-0.04187519137398691
0.843,-0.051556458459000885
0.8435,-0.06234995665753897
0.844,-0.06549256352240317
0.8445,-0.047373609456679205
0.845,-0.007396746928877137
0.8455,0.036120414211492265
0.846,0.060492507952978294
0.8465,0.05446075985411658
0.847,0.020174359670644206
0.8475,-0.031728966663802795
0.848,-0.08497760956695785
0.8485,-0.12107560178761918
0.849,-0.12665484568303398
0.8495,-0.10107497225780677
0.85,-0.05903657746797569
0.8505,-0.025881648960057277
0.851,-0.024422193586804065
0.8515,-0.05591813930265782
0.852,-0.08981396247694307
0.8525,-0.08114380228999936
0.853,-0.009725093904985094
0.8535,0.09671433226856699
0.854,0.1829356167598181
0.8545,0.20921880197804016
0.855,0.1735381472036465
0.8555,0.10120515067970191
0.856,0.02737519925362383
0.8565,-0.011307097484832104
0.857,0.010773944929806356
0.8575,0.08669568580245428
0.858,0.17286529416746776
0.8585,0.2185690936902019
0.859,0.2028672464073873
0.8595,0.1427373166469433
0.86,0.06961825994799893
0.8605,0.003703109977254121
0.861,-0.047044807979076717
0.8615,-0.0724130095909489
0.862,-0.06249242825038133
0.8625,-0.028099655534731892
0.863,-0.0015170187174909904
0.8635,-0.004755534596576605
0.864,-0.024428916727205242
0.8645,-0.02847439841063787
0.865,-0.005748872905349995
0.8655,0.019128489108358522
0.866,0.012481776289472429
0.8665,-0.03078051561565063
0.867,-0.07890906299246464
0.8675,-0.09275202029539868
0.868,-0.06335524291851685
0.8685,-0.019960793364569115
0.869,-0.001179760283521656
0.8695,-0.019980584422602074
0.87,-0.054566874040049285
0.8705,-0.0677002794068925
0.871,-0.03778312015307826
0.8715,0.01822442911747846
0.872,0.05185897953368385
0.8725,0.02485589577689025
0.873,-0.04950567369481808
0.8735,-0.11090970236626022
0.874,-0.10249534266353073
0.8745,-0.019978604605281614
0.875,0.0828115185170911
0.8755000000000001,0.13396702151271667
0.876,0.09945182788141377
0.8765000000000001,0.012862494264421705
0.877,-0.05135756571795803
0.8775000000000001,-0.04435290706765633
0.878,0.01320381781064175
0.8785000000000001,0.05395712495216497
0.879,0.030228757978711357
0.8795000000000001,-0.041744371838516814
0.88,-0.10123514185150267
0.8805000000000001,-0.10216303932709198
0.881,-0.04750784166167072
0.8815000000000001,0.030923619204720126
0.882,0.10799891071742726
0.8825000000000001,0.1690119630026706
0.883,0.19480174934071698
0.8835000000000001,0.16905387526836935
0.884,0.10393682748283653
0.8845000000000001,0.04179986257114746
0.885,0.018824519634215393
0.8855000000000001,0.029136904771568953
0.886,0.03275932290060205
0.8865000000000001,0.0002610507659376836
0.887,-0.05639285076122237
0.8875000000000001,-0.09899462127461492
0.888,-0.10118550585159769
0.8885000000000001,-0.0668569411527013
0.889,-0.019575459310521216
0.8895000000000001,0.017370268209217356
0.89,0.03594090311624351
0.8905000000000001,0.045761414045055036
0.891,0.057457435528164874
0.8915000000000001,0.061320878583672286
0.892,0.032626783610286175
0.8925000000000001,-0.03479092273847011
0.893,-0.1071223396446247
0.8935000000000001,-0.13081832752611927
0.894,-0.07630044485451654
0.8945000000000001,0.03346443381252256
0.895,0.13273738586198006
0.8955000000000001,0.15928903898831
0.896,0.10502829189448325
0.8965,0.022818009788599155
0.897,-0.023093429901150174
0.8975,-0.014816800398120385
0.898,0.010242883359285613
0.8985,0.001375167067972318
0.899,-0.0579038075138496
0.8995,-0.13586952761973642
0.9,-0.17737214367463341
0.9005,-0.14663438298409634
0.901,-0.056148728262978675
0.9015,0.04226398887346209
0.902,0.09859215760625253
0.9025,0.10230648582186055
0.903,0.08216688590399522
0.9035,0.07132573317478713
0.904,0.07564193169368397
0.9045,0.07477672922675059
0.905,0.048875391606745505
0.9055,0.0018896617121181986
0.906,-0.03983426849684822
0.9065,-0.0513948212433753
0.907,-0.032062569728574686
0.9075,-0.003636044170932288
0.908,0.013135195068305808
0.9085,0.01746920956745603
0.909,0.02363484468819424
0.9095,0.0410857858239919
0.91,0.06168575222885199
0.9105,0.06582969595163188
0.911,0.04251215872773989
0.9115,0.00554141410888582
0.912,-0.013548940004581091
0.9125,0.0037543321586097148
0.913,0.03729786724555761
0.9135,0.04141754170461624
0.914,-0.007315849025068656
0.9145,-0.07828261551279604
0.915,-0.11383869715337303
0.9155,-0.09033717200198621
0.916,-0.04031192445160383
0.9165,-0.006572888011464767
0.917,0.0110879428187548
0.9175,0.04264712714578212
0.918,0.08777083123970514
0.9185,0.10047916652802792
0.919,0.04915829988044647
0.9195,-0.028387540908278813
0.92,-0.054167692674701014
0.9205,0.007097805677130478
0.921,0.10674480681291482
0.9215,0.1549247526086081
0.922,0.10125954356228255
0.9225,-0.02282616456636465
0.923,-0.13587917781877906
0.9235,-0.17889541115480218
0.924,-0.15739659411441898
0.9245,-0.1168890737275388
0.925,-0.08922863258021634
0.9255,-0.07105728449649153
0.926,-0.04437318378276711
0.9265,-0.002323309451327125
0.927,0.044380320775621956
0.9275,0.07573367240027737
0.928,0.07695583953141955
0.9285,0.05280579964672395
0.929,0.02746693522012896
0.9295,0.022599632901624943
0.93,0.034803554259907284
0.9305,0.04230489164741157
0.931,0.03363884416646141
0.9315,0.018528690637884156
0.932,0.008694208704177763
0.9325,0.0033340558020530874
0.933,0.0016033010368125134
0.9335,0.01516033103486334
0.934,0.05523274872721866
0.9345,0.11297742887868922
0.935,0.15939548575677084
0.9355,0.1621449108137636
0.936,0.10680651013756245
0.9365,0.013238808672254866
0.937,-0.07069700587063393
0.9375,-0.10560788201016005
0.9380000000000001,-0.09517583111825213
0.9385,-0.07564061722068523
0.9390000000000001,-0.06795519759635911
0.9395,-0.05332201247922069
0.9400000000000001,-0.007893912029978682
0.9405,0.04866803680114301
0.9410000000000001,0.06135775651761681
0.9415,0.0016600746718112686
0.9420000000000001,-0.0922551091411471
0.9425,-0.14614557733866276
0.9430000000000001,-0.11803586087093305
0.9435,-0.034210887248795036
0.9440000000000001,0.04065044311570681
0.9445,0.06684291859656866
0.9450000000000001,0.060990659932182584
0.9455,0.06626546421048696
0.9460000000000001,0.09998464770321686
0.9465,0.13506615647057535
0.9470000000000001,0.1275309034063912
0.9475,0.05775802312970725
0.9480000000000001,-0.050087141706346996
0.9485,-0.14121153236167516
0.9490000000000001,-0.16440701520183995
0.9495,-0.10749436769461487
0.9500000000000001,-0.010331463325250138
0.9505,0.06237426963305444
0.9510000000000001,0.07215305534697133
0.9515,0.03199003964692931
0.9520000000000001,-0.01857891743176871
0.9525,-0.05160308414292629
0.9530000000000001,-0.05981565733536738
0.9535,-0.045406821073088195
0.9540000000000001,-0.01416385047883794
0.9545,0.026004232126024332
0.9550000000000001,0.06706068188668925
0.9555,0.09640177940603965
0.9560000000000001,0.09487755878266425
0.9565,0.05447614544335985
0.9570000000000001,-0.0013916874808591875
0.9575,-0.03105358546851617
0.9580000000000001,-0.01507008755096816
0.9585,0.025028829620888895
0.9590000000000001,0.05325137203652646
0.9595,0.05514330087987431
0.96,0.039470893683072716
0.9605,0.012927746114149687
0.961,-0.02965310580500706
0.9615,-0.0853194245651588
0.962,-0.12716476895060125
0.9625,-0.12451756060676057
0.963,-0.07924075010768042
0.9635,-0.02925596541925027
0.964,-0.009471120476011868
0.9645,-0.01642284672699587
0.965,-0.01668124912704773
0.9655,0.0180805022321602
0.966,0.08925269817466086
0.9665,0.17096498082279762
0.967,0.2199351431886296
0.9675,0.19773980511937936
0.968,0.10285159350876304
0.9685,-0.017581233683402548
0.969,-0.09811481706593865
0.9695,-0.10291250296737309
0.97,-0.046887719257618435
0.9705,0.021933837918785268
0.971,0.055083475824972875
0.9715,0.02820571931570601
0.972,-0.04776738093229929
0.9725,-0.12987609292746607
0.973,-0.16504453062211963
0.9735,-0.12482949950050896
0.974,-0.030182059470302704
0.9745,0.05632245775884189
0.975,0.0708171317647799
0.9755,-0.004156782877164335
0.976,-0.11961208168228839
0.9765,-0.18957602176112737
0.977,-0.1559924226999117
0.9775,-0.03846976951522807
0.978,0.0790597570528695
0.9785,0.11938985281748112
0.979,0.07781348133121052
0.9795,0.019639693536001236
0.98,0.011774259481223749
0.9805,0.059343908775581516
0.981,0.11314237706495797
0.9815,0.13030989862755063
0.982,0.11012896356622065
0.9825,0.07296401682618639
0.983,0.031114311626081203
0.9835,-0.007888262029432224
0.984,-0.03164713856939875
0.9845,-0.03607428786398703
0.985,-0.03640168776959686
0.9855,-0.04799630637072054
0.986,-0.06269063390620234
0.9865,-0.05920747550435545
0.987,-0.03477132113789858
0.9875,-0.012207951625359483
0.988,-0.011560610793984755
0.9885,-0.024609340063779295
0.989,-0.02588730224031808
0.9895,-0.0036340042130244684
0.99,0.03089037898048142
0.9905,0.06235312368416433
0.991,0.08471555586761852
0.9915,0.0926125342921616
0.992,0.07599591468005072
0.9925,0.03468600643333157
0.993,-0.011356691050868256
0.9935,-0.03790771016354566
0.994,-0.038889203357873714
0.9945,-0.025515261531991143
0.995,-0.007537501751353459
0.9955,0.015498297527814682
0.996,0.04574642813328047
0.9965,0.07833272564806722
0.997,0.10193993978615351
0.9975,0.10305837095150139
0.998,0.0720703786437852
0.9985,0.012937429372893591
0.999,-0.05278500377681298
0.9995,-0.09831488667314543
1.0,-0.11211826650931514
1.0005,-0.10634971429310704
1.0010000000000001,-0.10492100242411993
1.0015,-0.12127767082747898
1.002,-0.14416653099511864
1.0025,-0.14536145552621155
1.0030000000000001,-0.10574747738957
1.0035,-0.03492203051608477
1.004,0.037981627648189804
1.0045,0.09094649033659549
1.0050000000000001,0.11971145504944551
1.0055,0.12398339481757566
1.006,0.09752367248984797
1.0065,0.042808789626127185
1.0070000000000001,-0.010181808470140512
1.0075,-0.017041687965400037
1.008,0.03707990564682375
1.0085,0.11110025192367756
1.0090000000000001,0.1388278146248968
1.0095,0.09050801210078628
1.01,-0.0013707726044420452
1.0105,-0.0768970448442157
1.0110000000000001,-0.10087534702527774
1.0115,-0.0803801262837952
1.012,-0.04467941137642947
1.0125,-0.019241044732938493
1.0130000000000001,-0.015020300580233513
1.0135,-0.030098183026817663
1.014,-0.05251765196947201
1.0145,-0.06202149848652814
1.0150000000000001,-0.03964728093049403
1.0155,0.013336625470786272
1.016,0.06772497093060775
1.0165,0.0877807838236901
1.0170000000000001,0.06314788392418266
1.0175,0.014948521242289375
1.018,-0.02797266300046306
1.0185,-0.051004601617727845
1.0190000000000001,-0.053023578662525196
1.0195,-0.03627334876623333
1.02,-0.00649771192720462
1.0205,0.02045598635370189
1.0210000000000001,0.023551381745403832
1.0215,-0.0035160409360370723
1.022,-0.038059868640337335
1.0225,-0.04305991550819613
1.0230000000000001,-0.004506283371580243
1.0235,0.047933255883032766
1.024,0.06740608185083477
1.0245,0.04085618955459413
1.025,0.006223360407610708
1.0255,0.011227130056362855
1.026,0.0569066207584235
1.0265,0.08943390843700086
1.027,0.05320983715808731
1.0275,-0.046490930588830554
1.028,-0.13740161248979027
1.0285,-0.14495800927801808
1.029,-0.06663474782050888
1.0295,0.024468103573613478
1.03,0.05321031125410608
1.0305,0.012022641087949294
1.031,-0.044761856777920765
1.0315,-0.06273002008516697
1.032,-0.03470302106082202
1.0325,0.002998390758065606
1.033,0.00838333970446328
1.0335,-0.02904307224774297
1.034,-0.07894671521578685
1.0345,-0.09611847039000376
1.035,-0.05900298061859882
1.0355,0.014530184151001053
1.036,0.08439126454579761
1.0365,0.11838729213369491
1.037,0.1117131358302712
1.0375,0.0840954073972155
1.038,0.05829131186327156
1.0385,0.040822675628888264
1.039,0.024341063940255522
1.0395,0.004673596212858939
1.04,-0.01199779293568308
1.0405,-0.020949752649350797
1.041,-0.030739229320104144
1.0415,-0.05398793215855178
1.042,-0.08644010303974127
1.0425,-0.10310719884222211
1.043,-0.07899983594500355
1.0435,-0.012903286351401144
1.044,0.06772367862881633
1.0445,0.12452151988067216
1.045,0.13471751045823596
1.0455,0.10358193241666366
1.046,0.05224959502832089
1.0465,-0.002869707963202268
1.047,-0.05474181567600136
1.0475,-0.09390063015842538
1.048,-0.10264658511463882
1.0485,-0.06808790383821128
1.049,-0.00019433167956820277
1.0495,0.06707278313728726
1.05,0.09723311626750455
1.0505,0.0801231985556179
1.051,0.042558049759605115
1.0515,0.025190048181040738
1.052,0.042591538027904025
1.0525,0.06935170195181699
1.053,0.07098235188780767
1.0535,0.04294637235170119
1.054,0.010166272772544343
1.0545,-0.007210805808291566
1.055,-0.014882154384261072
1.0555,-0.03186723583524374
1.056,-0.06813836075737591
1.0565,-0.11516606050367498
1.057,-0.14933648691906432
1.0575,-0.1464742201532815
1.058,-0.1048820000542192
1.0585,-0.05516549677050999
1.059,-0.036741747162574154
1.0595,-0.059876157111732387
1.06,-0.0948138742280656
1.0605,-0.10061788653038703
1.061,-0.06336550466983949
1.0615,-0.006335018330559437
1.062,0.0335309329957673
1.0625,0.03564349567801706
1.063,0.0057379599337023315
1.0635000000000001,-0.03315906837499182
1.064,-0.053448852146317706
1.0645,-0.03694372384789476
1.065,0.007789562068205808
1.0655000000000001,0.0427334160388038
1.066,0.029955462203274365
1.0665,-0.029823654706512315
1.067,-0.09308696360483666
1.0675000000000001,-0.1098425724787543
1.068,-0.06369444169488658
1.0685,0.01991811920250197
1.069,0.09960648744918019
1.0695000000000001,0.14787610325597952
1.07,0.15642052839432408
1.0705,0.12677954679344475
1.071,0.0735122405556218
1.0715000000000001,0.03146288802181922
1.072,0.036504838919618254
1.0725,0.08957837739484627
1.073,0.14972479364649344
1.0735000000000001,0.16789196562544953
1.074,0.12344376604126092
1.0745,0.03186430826901715
1.075,-0.07027727671658796
1.0755000000000001,-0.14423679335538292
1.076,-0.16350769558731046
1.0765,-0.12357491535269183
1.077,-0.04678474756623333
1.0775000000000001,0.02290300191150211
1.078,0.04129583083918738
1.0785,-0.006654194620294902
1.079,-0.09273086717203001
1.0795000000000001,-0.16166492477485928
1.08,-0.16849969458369835
1.0805,-0.11057206521222113
1.081,-0.026952378079338243
1.0815000000000001,0.03766375084456414
1.082,0.069918890665288
1.0825,0.08689322403854612
1.083,0.10388226047282412
1.0835000000000001,0.1141914431996395
1.084,0.10277473315546906
1.0845,0.06865587388931271
1.085,0.025220593368731586
1.0855000000000001,-0.014526651619422397
1.086,-0.04166733915124737
1.0865,-0.04495640827171296
1.087,-0.016159147220225895
1.0875000000000001,0.0333154115766386
1.088,0.07030788703882745
1.0885,0.06436646434995852
1.089,0.01763832120987219
1.0895,-0.03254267751907488
1.09,-0.04719679596641489
1.0905,-0.024820517740413817
1.091,-0.003665777139249282
1.0915,-0.022082843819307335
1.092,-0.0788358675450249
1.0925,-0.13452359255197277
1.093,-0.14907729683515406
1.0935,-0.11515280366289525
1.094,-0.058250171488645835
1.0945,-0.010813740863893626
1.095,0.011711245632051592
1.0955,0.014716871456391311
1.096,0.011370291944959606
1.0965,0.006917604764971299
1.097,-0.005733995508993044
1.0975,-0.0330027753538224
1.098,-0.06215449584873
1.0985,-0.06395754494641435
1.099,-0.023752707179262495
1.0995,0.03375173319008526
1.1,0.062193930432262394
1.1005,0.03684387699954276
1.101,-0.025529922161805323
1.1015,-0.08586631173933885
1.102,-0.11399632034400704
1.1025,-0.10375345233381524
1.103,-0.06615887522129611
1.1035,-0.013996515839801374
1.104,0.04220787451411631
1.1045,0.08570503911456451
1.105,0.09636667696108632
1.1055,0.07205729402341321
1.106,0.03694617646637107
1.1065,0.01698123840632482
1.107,0.014292047917146753
1.1075,0.015590370029187575
1.108,0.016477174241313588
1.1085,0.02233686185512471
1.109,0.029304552549173357
1.1095,0.021757350979163714
1.11,-0.006021418739507631
1.1105,-0.03599745500367686
1.111,-0.04046316511054644
1.1115,-0.006466928498283468
1.112,0.05325506189172027
1.1125,0.10787913468088502
1.113,0.12905890141508244
1.1135,0.11147909871416191
1.114,0.07261027100532014
1.1145,0.028774989659829105
1.115,-0.02182426089396814
1.1155,-0.0848835740742388
1.116,-0.14675126998047436
1.1165,-0.17796135871028695
1.117,-0.15897475461094276
1.1175,-0.09618877381407978
1.118,-0.016961918453056266
1.1185,0.0435328653862298
1.119,0.056323549110897556
1.1195,0.01651422770340942
1.12,-0.0434272157701912
1.1205,-0.06805569577697382
1.121,-0.024463977653369842
1.1215,0.06174723209419788
1.122,0.12507846976378734
1.1225,0.11966746648176527
1.123,0.05665256924517509
1.1235,-0.016110870472264026
1.124,-0.06135244142268498
1.1245,-0.07636586167135222
1.125,-0.08111164239179543
1.1255,-0.09354294337254049
1.1260000000000001,-0.11531349441413008
1.1265,-0.1343440426866696
1.127,-0.13728635372142528
1.1275,-0.11940690875332802
1.1280000000000001,-0.08435186544401185
1.1285,-0.03742243109863789
1.129,0.017498849700697826
1.1295,0.07267362099624079
1.1300000000000001,0.11190088961427155
1.1305,0.11913983935441738
1.131,0.09481138568685596
1.1315,0.05879282344151934
1.1320000000000001,0.03422017711713195
1.1325,0.02995558297820597
1.133,0.03673658085670104
1.1335,0.03603546301757705
1.1340000000000001,0.01618197937418054
1.1345,-0.013724495876104258
1.135,-0.028800114212264444
1.1355,-0.014452554852965264
1.1360000000000001,0.014464528965245324
1.1365,0.027972580837782
1.137,0.01355985022012056
1.1375,-0.012716831623460939
1.1380000000000001,-0.027588795308417312
1.1385,-0.025396592592201624
1.139,-0.018591821963943475
1.1395,-0.018571841569111788
1.1400000000000001,-0.02135216492109074
1.1405,-0.012534266027300185
1.141,0.0155749889867504
1.1415,0.051966365489031406
1.1420000000000001,0.07173092154789842
1.1425,0.055826030786947985
1.143,0.010691325598636277
1.1435,-0.031075270879742975
1.1440000000000001,-0.03548594591261383
1.1445,6.066217142989931e-05
1.145,0.03886299531038608
1.1455,0.03518100584363402
1.1460000000000001,-0.025797408848169116
1.1465,-0.11583911127953657
1.147,-0.18353699298204598
1.1475,-0.18730925538983076
1.1480000000000001,-0.12616233153195766
1.1485,-0.04994484054311021
1.149,-0.027760924790314966
1.1495,-0.08632671433736959
1.1500000000000001,-0.17614936139908036
1.1505,-0.21076489498806936
1.151,-0.14653683105198134
1.1515,-0.020099146421370406
1.1520000000000001,0.092826128211373
1.1525,0.14596216090890002
1.153,0.1470316605051522
1.1535,0.1284669611835098
1.154,0.10911300542902926
1.1545,0.08392176957687876
1.155,0.043418818490851906
1.1555,0.0004946860275191235
1.156,-0.008121154379262117
1.1565,0.04078474633619165
1.157,0.11650523325135606
1.1575,0.14694373554866258
1.158,0.08613437692221698
1.1585,-0.03366801152346197
1.159,-0.1279940638208435
1.1595,-0.13768249390796794
1.16,-0.07428037022905323
1.1605,0.004885371632823364
1.161,0.051867973129936955
1.1615,0.05700809945294081
1.162,0.03734712222303141
1.1625,0.010214215820136591
1.163,-0.018041366555206904
1.1635,-0.04349121387515342
1.164,-0.05751584327881206
1.1645,-0.056285743536280804
1.165,-0.05116537083776442
1.1655,-0.05807620019935216
1.166,-0.07597088101112642
1.1665,-0.0850030171374353
1.167,-0.07019523619944827
1.1675,-0.04192016846309689
1.168,-0.027614193262301353
1.1685,-0.04262337920871092
1.169,-0.07001867943489372
1.1695,-0.07106749089579013
1.17,-0.022031347749808205
1.1705,0.053730780970742686
1.171,0.0958141171076641
1.1715,0.061261293522970134
1.172,-0.030307695208328142
1.1725,-0.11665352928148026
1.173,-0.15452163552913634
1.1735,-0.14389846669016154
1.174,-0.09643412871801849
1.1745,-0.013373325596192275
1.175,0.0903284110322809
1.1755,0.16588442771682319
1.176,0.1636011919967608
1.1765,0.08541701095194833
1.177,-0.009618685838858037
1.1775,-0.0551951254684261
1.178,-0.029896419433442397
1.1785,0.03370565312984029
1.179,0.0819104225143369
1.1795,0.08364452286843738
1.18,0.050840982203860526
1.1805,0.02025843202139538
1.181,0.01633685087127345
1.1815,0.031909991526783026
1.182,0.04185587421081128
1.1825,0.031747805442986436
1.183,0.012769150666202371
1.1835,0.009468607192923435
1.184,0.03387031357954873
1.1845,0.07307544539757982
1.185,0.1010378842716866
1.1855,0.09840927736075444
1.186,0.06103796218040912
1.1865,-0.004280150194193843
1.187,-0.08615561486875639
1.1875,-0.16829520299340453
1.188,-0.22386815897175463
1.1885000000000001,-0.21932645892253624
1.189,-0.13990404938021506
1.1895,-0.01931551542739115
1.19,0.06607959170613446
1.1905000000000001,0.05224388411818555
1.191,-0.05106630584155342
1.1915,-0.1572352900359704
1.192,-0.1740492558694402
1.1925000000000001,-0.0852159269334119
1.193,0.03987523643791029
1.1935,0.11224607185862172
1.194,0.09055603390852926
1.1945000000000001,-0.0053618822561429785
1.195,-0.11865305291036268
1.1955,-0.18544070571748464
1.196,-0.16795409328127603
1.1965000000000001,-0.0845950723445688
1.197,-0.003374220379844481
1.1975,0.014181362355398944
1.198,-0.031106440023430798
1.1985000000000001,-0.08293295010543247
1.199,-0.0917370110533133
1.1995,-0.06040402881764058
1.2,-0.026068354149367857
1.2005000000000001,-0.008928369599509624
1.201,0.006741810207532747
1.2015,0.04071315085617892
1.202,0.08177558893529166
1.2025000000000001,0.09848817275817033
1.203,0.0791480371913571
1.2035,0.04453114143959503
1.204,0.019212853670126727
1.2045000000000001,0.005678025940232926
1.205,-0.005304747012122718
1.2055,-0.010304284911171349
1.206,0.0072418546281540945
1.2065000000000001,0.054906596236822744
1.207,0.11731581034029476
1.2075,0.16376046970591068
1.208,0.16434584680513592
1.2085000000000001,0.10423003203483958
1.209,-0.0025837372917577677
1.2095,-0.10853622237306787
1.21,-0.15744889456347014
1.2105000000000001,-0.13150698392985846
1.211,-0.07013821487350869
1.2115,-0.030150274704364304
1.212,-0.030037209674853453
1.2125000000000001,-0.04393818004831881
1.213,-0.044399606201734054
1.2135,-0.032791049893574536
1.214,-0.024760573186345898
1.2145000000000001,-0.024410681463653418
1.215,-0.025769527963770016
1.2155,-0.02814470382006593
1.216,-0.03342468977696132
1.2165,-0.033516689300400054
1.217,-0.017472205960134088
1.2175,0.010395907330935338
1.218,0.03537335701643743
1.2185,0.05470109180571129
1.219,0.0790664138121211
1.2195,0.10922991726325587
1.22,0.12367343080144569
1.2205,0.09596239188828859
1.221,0.023357704106880768
1.2215,-0.06173813695742636
1.222,-0.11253037623985034
1.2225,-0.10709665626699508
1.223,-0.06633844466721234
1.2235,-0.029378257620230594
1.224,-0.01668980281027023
1.2245,-0.02168958392224863
1.225,-0.02853130016268255
1.2255,-0.02808564633732271
1.226,-0.02213811682742305
1.2265,-0.02132677414076059
1.227,-0.037116155796109496
1.2275,-0.06953747867548705
1.228,-0.10179255941121532
1.2285,-0.1088844498546087
1.229,-0.07601841797481153
1.2295,-0.01636803287174458
1.23,0.028930577935837115
1.2305,0.02196190359289913
1.231,-0.030751309663452187
1.2315,-0.07745170368831483
1.232,-0.07430974866674761
1.2325,-0.032871568963965384
1.233,0.00019765571616191398
1.2335,0.004881306529226151
1.234,0.007837264377276311
1.2345,0.036730451632333676
1.235,0.07439481151221551
1.2355,0.0744859547411162
1.236,0.018360584590410227
1.2365,-0.057644939273235024
1.237,-0.09713695732952017
1.2375,-0.07716782379066169
1.238,-0.019983036087506945
1.2385,0.037792586022724846
1.239,0.07360809928406709
1.2395,0.0817269474341788
1.24,0.06372148678285576
1.2405,0.02400976735425655
1.241,-0.02730399564969269
1.2415,-0.0734525167980606
1.242,-0.09982966889373479
1.2425,-0.1054631970497151
1.243,-0.1008922990184257
1.2435,-0.09197574109293424
1.244,-0.07081968052553059
1.2445,-0.029380777363144563
1.245,0.018765689050671122
1.2455,0.03959746131504965
1.246,0.011638760297072129
1.2465,-0.041653998817316254
1.247,-0.06384461543950709
1.2475,-0.020904317808322026
1.248,0.058588600705922166
1.2485,0.10991662834045642
1.249,0.09898035688042418
1.2495,0.05132371706137853
1.25,0.013485084860682043
1.2505,0.0009913718326902965
1.2510000000000001,-0.006177718273028524
1.2515,-0.02771143637167473
1.252,-0.05524056133020983
1.2525,-0.05969444989203282
1.2530000000000001,-0.024288472115031656
1.2535,0.02860843532453234
1.254,0.05103654758698969
1.2545,0.019039238838074284
1.2550000000000001,-0.03848501346623104
1.2555,-0.07160337325518941
1.256,-0.06266056300995286
1.2565,-0.036039910690566064
1.2570000000000001,-0.022326448943362557
1.2575,-0.0272091987636567
1.258,-0.03414612607935151
1.2585,-0.026445863875027963
1.2590000000000001,-0.0035415235704370322
1.2595,0.02055963245503843
1.26,0.03184949784026571
1.2605,0.02678336187446129
1.2610000000000001,0.007598705280421969
1.2615,-0.02559285378620988
1.262,-0.06838471885649672
1.2625,-0.09994485248591307
1.2630000000000001,-0.09111906934649404
1.2635,-0.033579452899407364
1.264,0.0432060621397003
1.2645,0.09179779880033814
1.2650000000000001,0.08583333696842252
1.2655,0.03935460085582274
1.266,-0.01014397722764765
1.2665,-0.035125969767822146
1.2670000000000001,-0.03513808804892047
1.2675,-0.02582336318462666
1.268,-0.01966398063466614
1.2685,-0.022087001062050988
1.2690000000000001,-0.03889166654700726
1.2695,-0.07501332539292521
1.27,-0.1229612418747504
1.2705,-0.15883212615554526
1.2710000000000001,-0.15550395634119446
1.2715,-0.10338433015001383
1.272,-0.022319192080231545
1.2725,0.04644776722390657
1.2730000000000001,0.06669410815957261
1.2735,0.03415471240517787
1.274,-0.019297951355141167
1.2745,-0.05085266768225709
1.2750000000000001,-0.041076956568311195
1.2755,-0.006900873335231156
1.276,0.01738785382168052
1.2765,0.011740889055673973
1.2770000000000001,-0.013717973165341457
1.2775,-0.030372651679691737
1.278,-0.019653385500830345
1.2785,0.007457280890859426
1.2790000000000001,0.021218332007710942
1.2795,0.005435124258266153
1.28,-0.024862071994903968
1.2805,-0.04105722791049366
1.281,-0.02938793270792714
1.2815,0.00535318807919195
1.282,0.05516583578051442
1.2825,0.11182848549406234
1.283,0.15712985671488977
1.2835,0.16782865163485663
1.284,0.1373424258396119
1.2845,0.08435010127969404
1.285,0.03383823403059176
1.2855,-0.006400189399585481
1.286,-0.04440128213023581
1.2865,-0.08104927122656468
1.287,-0.09940201557922597
1.2875,-0.0864369126681764
1.288,-0.05992085707783023
1.2885,-0.05688548911777737
1.289,-0.08929634332996565
1.2895,-0.12404049603053663
1.29,-0.11848276977740634
1.2905,-0.06947045134004053
1.291,-0.015066085226236679
1.2915,0.010537577507638816
1.292,0.010520572459879899
1.2925,0.007972014648693748
1.293,0.005784558584482135
1.2935,-0.019591401272832938
1.294,-0.08018128767139641
1.2945,-0.14447342595939539
1.295,-0.15864630125428972
1.2955,-0.10283693704471884
1.296,-0.01693620396163161
1.2965,0.036881120734542694
1.297,0.033637661089073706
1.2975,0.0023726376711260145
1.298,-0.011816192543416325
1.2985,0.006403688553060958
1.299,0.03443543599787965
1.2995,0.04028329284581247
1.3,0.013794233831157996
1.3005,-0.027811016025489844
1.301,-0.06070925896884985
1.3015,-0.07751855857280986
1.302,-0.08817729259029164
1.3025,-0.10029344392636827
1.303,-0.10468180736203334
1.3035,-0.08532976531010715
1.304,-0.043416891136665706
1.3045,-0.0043343526374349985
1.305,0.008534460339791971
1.3055,0.005445186710155821
1.306,0.020863917448999937
1.3065,0.06577855459394119
1.307,0.1036500954136662
1.3075,0.08780748196552181
1.308,0.017079760556429187
1.3085,-0.05737924199899267
1.309,-0.08003370851734878
1.3095,-0.03968379185345686
1.31,0.026891225222555607
1.3105,0.0712216445635819
1.311,0.07108238258400762
1.3115,0.039482392003765694
1.312,0.004114779325940888
1.3125,-0.018250793027745765
1.313,-0.028069588514944514
1.3135000000000001,-0.031251376047271816
1.314,-0.029671007088342284
1.3145,-0.02144981056163834
1.315,-0.001244098593042457
1.3155000000000001,0.03827135706167204
1.316,0.09199108613767733
1.3165,0.12760529130869858
1.317,0.10388385051438846
1.3175000000000001,0.019669419934205703
1.318,-0.06497463118520666
1.3185,-0.07929453545764294
1.319,-0.018626403878961757
1.3195000000000001,0.04541832251347662
1.32,0.041408635009361455
1.3205,-0.02606112764732515
1.321,-0.08855461388683103
1.3215000000000001,-0.09354992711666212
1.322,-0.055585832854555144
1.3225,-0.02783073768964473
1.323,-0.039094014128859905
1.3235000000000001,-0.06925142331400133
1.324,-0.07997287288123908
1.3245,-0.05810423784317649
1.325,-0.0261426728246107
1.3255000000000001,-0.015317825100826497
1.326,-0.03535770730828157
1.3265,-0.07292102860289018
1.327,-0.11156987187891358
1.3275000000000001,-0.1425621967333616
1.328,-0.1590491306540847
1.3285,-0.1536198678631285
1.329,-0.12660496692637135
1.3295000000000001,-0.08940692508499683
1.33,-0.05510274673715761
1.3305,-0.029337920675577046
1.331,-0.012566766390817184
1.3315000000000001,-0.0065996613706887025
1.332,-0.013235629087235723
1.3325,-0.02657414834071853
1.333,-0.032059362090610055
1.3335000000000001,-0.017966230986781084
1.334,0.01214698054513442
1.3345,0.04292809694395002
1.335,0.06565997174345599
1.3355000000000001,0.08746804778732555
1.336,0.11574861188905718
1.3365,0.13960478665481088
1.337,0.13924923062930897
1.3375000000000001,0.1130510870878269
1.338,0.08182332593602451
1.3385,0.061785703219207816
1.339,0.044131901726488704
1.3395000000000001,0.010377121837213399
1.34,-0.03601023008713397
1.3405,-0.06408216753317385
1.341,-0.04920811329054545
1.3415000000000001,-0.008723593007823875
1.342,0.009184238010672675
1.3425,-0.023732321598351667
1.343,-0.08644509136579781
1.3435000000000001,-0.13375635408934375
1.344,-0.14007927355011682
1.3445,-0.11421984107697095
1.345,-0.0819698009525663
1.3455,-0.06272072128500955
1.346,-0.0577924182904064
1.3465,-0.052691969089566644
1.347,-0.030570118435026446
1.3475,0.010409405254905678
1.348,0.050748867140392714
1.3485,0.06528069016960841
1.349,0.04880652884522037
1.3495,0.021438821425319964
1.35,0.0028289862834351676
1.3505,-0.012607213726893886
1.351,-0.042892847450289213
1.3515,-0.08357877941899389
1.352,-0.10300124060610583
1.3525,-0.08015095469261933
1.353,-0.0338344349505356
1.3535,-0.0005005039544867078
1.354,0.009985289552847592
1.3545,0.020612164973429187
1.355,0.04949403067653209
1.3555,0.08136820023798814
1.356,0.08316709197288712
1.3565,0.037656096273516224
1.357,-0.042365989040020875
1.3575,-0.11960499337940571
1.358,-0.1463031915408845
1.3585,-0.09236989545765628
1.359,0.020767130965876433
1.3595,0.12011710454340986
1.36,0.13293971873379493
1.3605,0.0464263269623405
1.361,-0.08339488899200474
1.3615,-0.17833624811484183
1.362,-0.19559092662588856
1.3625,-0.1524770583117656
1.363,-0.10326188016374942
1.3635,-0.08765441381491705
1.364,-0.09816598033093671
1.3645,-0.09728178552337438
1.365,-0.05946460971557169
1.3655,0.009347998625221015
1.366,0.08345522658948229
1.3665,0.13424735362051948
1.367,0.13842224346416881
1.3675,0.08689009424195994
1.368,-0.0020226588732037256
1.3685,-0.08268917186633365
1.369,-0.11075336101731058
1.3695,-0.07976834325241652
1.37,-0.023362243216552156
1.3705,0.023391413183455504
1.371,0.055449958356829934
1.3715,0.08405689800287837
1.372,0.10462334466802112
1.3725,0.0963010637755018
1.373,0.051896645696968585
1.3735,-0.007339322112293852
1.374,-0.0506564073604037
1.3745,-0.06233613189500386
1.375,-0.04742944156559396
1.3755,-0.025435837611427172
1.3760000000000001,-0.020742501869792433
1.3765,-0.04488620825221067
1.377,-0.07876029297215897
1.3775,-0.08225104782517377
1.3780000000000001,-0.033755076147894456
1.3785,0.04239254734567728
1.379,0.09349158726190862
1.3795,0.08150524421047156
1.3800000000000001,0.011145939314145889
1.3805,-0.07539476188611303
1.381,-0.13085506611162315
1.3815,-0.1385225424916066
1.3820000000000001,-0.12023319992853669
1.3825,-0.10884576351193137
1.383,-0.11293791730789164
1.3835,-0.10787827904554093
1.3840000000000001,-0.06161103698730036
1.3845,0.026621441857093704
1.385,0.11180241886399316
1.3855,0.1357102653138734
1.3860000000000001,0.08294087322362945
1.3865,0.002622072848569081
1.387,-0.03314071379031011
1.3875,0.00440421262688055
1.3880000000000001,0.07527052111290569
1.3885,0.1087451535733603
1.389,0.06518598004756929
1.3895,-0.03466160450156031
1.3900000000000001,-0.13250123843157413
1.3905,-0.1800838253442743
1.391,-0.16908364995551636
1.3915,-0.12468503648861805
1.3920000000000001,-0.07895964471374822
1.3925,-0.050684596860683336
1.393,-0.04157399190997469
1.3935,-0.0429086363691842
1.3940000000000001,-0.04520439112842143
1.3945,-0.044468360413723554
1.395,-0.04007555382760388
1.3955,-0.030317822226350835
1.3960000000000001,-0.017085494357894068
1.3965,-0.01340817277881618
1.397,-0.03281295176736848
1.3975,-0.06298179425731283
1.3980000000000001,-0.06132762293932502
1.3985,0.005286165071629135
1.399,0.11427913687157026
1.3995,0.1930504294238602
1.4000000000000001,0.17958093475006132
1.4005,0.0790172820192692
1.401,-0.03696587992875328
1.4015,-0.08555428409158444
1.4020000000000001,-0.03595114035253353
1.4025,0.06893486871012433
1.403,0.14614387523363487
1.4035,0.13262852487108484
1.4040000000000001,0.0284479677577582
1.4045,-0.10194958318399795
1.405,-0.17127892423600313
1.4055,-0.13272962416371642
1.4060000000000001,-0.020575808153112142
1.4065,0.07470189547611819
1.407,0.08406844906472856
1.4075,0.014831603105050247
1.408,-0.07200649967319431
1.4085,-0.1248880135886233
1.409,-0.13151459407332206
1.4095,-0.10339220447543801
1.41,-0.05805097632246127
1.4105,-0.018916994660483306
1.411,-0.011790546614595722
1.4115,-0.04506396226015935
1.412,-0.09599310646640674
1.4125,-0.12712328375199217
1.413,-0.11860097615919271
1.4135,-0.0799866884311595
1.414,-0.032929629555899745
1.4145,0.007731661175062228
1.415,0.03260303534209371
1.4155,0.028237759183429495
1.416,-0.01589629029166441
1.4165,-0.08516995577614983
1.417,-0.13399868257638306
1.4175,-0.11911467619273254
1.418,-0.045688267037357164
1.4185,0.028713098681479896
1.419,0.04657116362530405
1.4195,0.0054528095501471235
1.42,-0.043910489934621245
1.4205,-0.05005498182865398
1.421,-0.005438475977537667
1.4215,0.055655543556448375
1.422,0.09361421013058002
1.4225,0.09702473747289753
1.423,0.08567602402709346
1.4235,0.08425377653863657
1.424,0.09521525792876885
1.4245,0.09776860900281453
1.425,0.07054941355681715
1.4255,0.014039549311170539
1.426,-0.0467354343900828
1.4265,-0.08028199944735327
1.427,-0.07170622625343352
1.4275,-0.032521863621058626
1.428,0.007632758092648724
1.4285,0.019756646790191075
1.429,-0.005535740936210018
1.4295,-0.05003657106001255
1.43,-0.08023443049399416
1.4305,-0.07465082932158029
1.431,-0.04333914294647211
1.4315,-0.020213265632852064
1.432,-0.03399512441715685
1.4325,-0.0810619171563215
1.433,-0.12124671762511391
1.4335,-0.10722657227110456
1.434,-0.03399535718340094
1.4345,0.04059417090997164
1.435,0.04499435660197335
1.4355,-0.02634685358713147
1.436,-0.09944768554341497
1.4365,-0.1013506143902748
1.437,-0.040818982312583664
1.4375,0.008232984371983878
1.438,-0.005744771450914203
1.4385000000000001,-0.060034295019920844
1.439,-0.09112097542010936
1.4395,-0.06366024105296618
1.44,-0.0003866125963311066
1.4405000000000001,0.04890452044789478
1.441,0.06056482309710553
1.4415,0.057299868827135766
1.442,0.0751677490831361
1.4425000000000001,0.11279474399995121
1.443,0.12158666678788586
1.4435,0.055573990974806795
1.444,-0.06867961024719983
1.4445000000000001,-0.17164667517599003
1.445,-0.18016409591716503
1.4455,-0.09825446524893278
1.446,-0.004530843547364809
1.4465000000000001,0.021117969055161844
1.447,-0.034178926107005875
1.4475,-0.11595185774189593
1.448,-0.15828722760934183
1.4485000000000001,-0.13607787191475262
1.449,-0.07383291111056128
1.4495,-0.018986661381772203
1.45,-0.008418092993740542
1.4505000000000001,-0.046592334503381995
1.451,-0.10156203227166351
1.4515,-0.1226180536472888
1.452,-0.0762792318163667
1.4525000000000001,0.021957917918020188
1.453,0.11221042029131387
1.4535,0.13724561798806745
1.454,0.0926211489279488
1.4545000000000001,0.028293288894627885
1.455,-0.0027651700018027966
1.4555,0.006328514315989235
1.456,0.021288082940862443
1.4565000000000001,0.011698973162885557
1.457,-0.019532245395098267
1.4575,-0.048310335761778414
1.458,-0.058149413900084185
1.4585000000000001,-0.05167903416325834
1.459,-0.03976477676725383
1.4595,-0.026365515766999408
1.46,-0.005618942427850675
1.4605000000000001,0.027076554297676022
1.461,0.062410780200059454
1.4615,0.07884970044180885
1.462,0.06096826320526285
1.4625000000000001,0.017046994872923514
1.463,-0.024412028293670646
1.4635,-0.03841209586223126
1.464,-0.0233665226363146
1.4645000000000001,0.0027953961650946492
1.465,0.02238818272851256
1.4655,0.030006296235392183
1.466,0.028086946521808223
1.4665000000000001,0.018882951947632946
1.467,0.005730512742592922
1.4675,-0.0014721586090714511
1.468,0.008798168305266741
1.4685000000000001,0.03328006074308479
1.469,0.04571635986266
1.4695,0.01544684263243042
1.47,-0.05811742275604245
1.4705000000000001,-0.13320062616306552
1.471,-0.15825776132606906
1.4715,-0.12148109232578704
1.472,-0.06416217402436349
1.4725,-0.04149491008331228
1.473,-0.0720151720282377
1.4735,-0.12873232919276603
1.474,-0.1748261228685692
1.4745,-0.1938362699303811
1.475,-0.1811834584554777
1.4755,-0.12720217184578209
1.476,-0.03170875730898101
1.4765,0.07016143367291097
1.477,0.12157929149713778
1.4775,0.09489955384743831
1.478,0.01977424302316768
1.4785,-0.04799368252260328
1.479,-0.0802874233092968
1.4795,-0.09077135383753436
1.48,-0.09885583657275422
1.4805,-0.09517897400536592
1.481,-0.05412541629206766
1.4815,0.02487998975401849
1.482,0.10223353328129098
1.4825,0.13010901423177154
1.483,0.09680860281631763
1.4835,0.03663761315687759
1.484,-0.003467866055959969
1.4845,-0.00512891249204604
1.485,0.012394360946748246
1.4855,0.019447522583371082
1.486,0.009388510390598848
1.4865,0.005120356846727042
1.487,0.031793683117498715
1.4875,0.08377531457298751
1.488,0.12273546026717026
1.4885,0.10899584207837468
1.489,0.03367329759217362
1.4895,-0.07268654057739547
1.49,-0.15526051078415082
1.4905,-0.16661726859103115
1.491,-0.10056776095223154
1.4915,-0.0016184497028660684
1.492,0.06525796342459918
1.4925,0.06242444538468098
1.493,0.002027851331769257
1.4935,-0.07423203220899785
1.494,-0.130454162063298
1.4945,-0.15018503122300925
1.495,-0.12884429254530982
1.4955,-0.07279501802505085
1.496,-0.008610822111246644
1.4965,0.024200954136781243
1.497,0.0029482755013969467
1.4975,-0.058735398298314714
1.498,-0.12471435231235627
1.4985,-0.1634943096816356
1.499,-0.16003230003808963
1.4995,-0.11526884260817902
1.5,-0.04861507525699706
1.5005,0.00460892495768582
1.5010000000000001,0.015625243659180867
1.5015,-0.010067642000072822
1.502,-0.03264981280175661
1.5025,-0.013004479217989851
1.5030000000000001,0.04859802422183878
1.5035,0.1083740493668567
1.504,0.11725150188779887
1.5045,0.06907874558721921
1.5050000000000001,0.011306720244352508
1.5055,0.0028816997571683035
1.506,0.0593582337945583
1.5065,0.13991197830506916
1.5070000000000001,0.18444788877797055
1.5075,0.15932734650518254
1.508,0.0728021009079477
1.5085,-0.04046909730256818
1.5090000000000001,-0.14175053354556008
1.5095,-0.19993778110224059
1.51,-0.19520078706036084
1.5105,-0.12675038036042352
1.5110000000000001,-0.025321927871725675
1.5115,0.049985836390586
1.512,0.0478705596914153
1.5125,-0.028387995626963043
1.5130000000000001,-0.11440999547484815
1.5135,-0.1359753906236382
1.514,-0.07270335353464157
1.5145,0.02675330688170273
1.5150000000000001,0.08997556312812684
1.5155,0.08104207725740648
1.516,0.021561540537437324
1.5165,-0.03977334670124984
1.5170000000000001,-0.07345870367120873
1.5175,-0.08622563763388616
1.518,-0.09895490043581302
1.5185,-0.11660165256019395
1.5190000000000001,-0.12321756176364616
1.5195,-0.10209287324209537
1.52,-0.05626271663843971
1.5205,-0.009056160751705622
1.5210000000000001,0.014950049989355224
1.5215,0.009176088019548804
1.522,-0.015347937539283285
1.5225,-0.04611079378950718
1.5230000000000001,-0.07710969410364535
1.5235,-0.10004735218627286
1.524,-0.09943685595758076
1.5245,-0.06667683379044351
1.5250000000000001,-0.014373229233546257
1.5255,0.03280164155496195
1.526,0.060894785856166686
1.5265,0.07444623077344481
1.5270000000000001,0.08281970839734247
1.5275,0.08558586401102504
1.528,0.07332104787471638
1.5285,0.03900015965303345
1.5290000000000001,-0.012299698640793657
1.5295,-0.06089134090972943
1.53,-0.07877656461754416
1.5305,-0.04609755192919994
1.5310000000000001,0.02994566164090535
1.5315,0.11301952573776083
1.532,0.15962224807221873
1.5325,0.14393079725922886
1.5330000000000001,0.06583952746146848
1.5335,-0.04942460145600531
1.534,-0.152387803382256
1.5345,-0.18769244041967498
1.5350000000000001,-0.1340935599472906
1.5355,-0.029534883330171312
1.536,0.054247704010619666
1.5365,0.0688541742997564
1.537,0.021825201751953002
1.5375,-0.042712138146454505
1.538,-0.08633362816765078
1.5385,-0.09832540087008652
1.539,-0.08848973900527601
1.5395,-0.07113987207597701
1.54,-0.055769483293826874
1.5405,-0.04455613946946022
1.541,-0.03434843384984006
1.5415,-0.022366984506674747
1.542,-0.010885168438419498
1.5425,-0.005223372115074886
1.543,-0.007225486886153772
1.5435,-0.013661730561019617
1.544,-0.023229910765002665
1.5445,-0.04095456046293792
1.545,-0.06934112905198464
1.5455,-0.09819303554188065
1.546,-0.11277392161373435
1.5465,-0.1122052468237459
1.547,-0.10957445960502935
1.5475,-0.11062681504999702
1.548,-0.10208023227166566
1.5485,-0.06769388233710855
1.549,-0.009450726504643726
1.5495,0.05318368212975079
1.55,0.09901301885266685
1.5505,0.11421965943806069
1.551,0.09315822536402428
1.5515,0.04194426795275026
1.552,-0.016934312325570543
1.5525,-0.051062068086609125
1.553,-0.03713879645632156
1.5535,0.021513765390324686
1.554,0.09508522446153739
1.5545,0.1466684644076448
1.555,0.15470400229274892
1.5555,0.1208273475845285
1.556,0.061379582033253846
1.5565,-0.005355737718535283
1.557,-0.0640310100381795
1.5575,-0.09949071818724853
1.558,-0.10082157179172777
1.5585,-0.07793301000156609
1.559,-0.06614350282200712
1.5595,-0.09479388935300448
1.56,-0.14661983447607194
1.5605,-0.16298414383577312
1.561,-0.10115539369613269
1.5615,0.015402142108869447
1.562,0.10916649379929436
1.5625,0.11429839711958513
1.563,0.033901013766719106
1.5635000000000001,-0.06548184538439025
1.564,-0.11538049134757986
1.5645,-0.10123367134497427
1.565,-0.06066566351792184
1.5655000000000001,-0.03579771838257265
1.566,-0.033989891318571296
1.5665,-0.030472173618994527
1.567,-0.0012980097046148714
1.5675000000000001,0.04503504952259915
1.568,0.06717906818758886
1.5685,0.031499337342762966
1.569,-0.0426571399860901
1.5695000000000001,-0.09159898364896518
1.57,-0.07214875459069513
1.5705,-0.009776137718309286
1.571,0.029309281539037918
1.5715000000000001,0.009414570096223557
1.572,-0.04354812655220522
1.5725,-0.08008493001615458
1.573,-0.07930618223625324
1.5735000000000001,-0.05656854484338628
1.574,-0.034342348817992585
1.5745,-0.02080412825470384
1.575,-0.013071623733963013
1.5755000000000001,-0.007787028415521665
1.576,-0.0035628686426744257
1.5765,0.0014075266949044596
1.577,0.008089429324367941
1.5775000000000001,0.012471573171308084
1.578,0.006288095227698347
1.5785,-0.01392056389164986
1.579,-0.03706715267344695
1.5795000000000001,-0.040924744309385905
1.58,-0.013190723754713
1.5805,0.026783776312276734
1.581,0.03462806905120073
1.5815000000000001,-0.017132474686662114
1.582,-0.1010032480344595
1.5825,-0.15093725567546495
1.583,-0.12617208047111916
1.5835000000000001,-0.05104903194891409
1.584,0.01845097099202194
1.5845,0.05765485025746376
1.585,0.08353412686494802
1.5855000000000001,0.10760760553518377
1.586,0.10853661700821297
1.5865,0.06551036277297925
1.587,-0.0013996707524143292
1.5875000000000001,-0.04719397964215922
1.588,-0.053172190428830805
1.5885,-0.041086123423579625
1.589,-0.03252838039761585
1.5895000000000001,-0.0166284793374787
1.59,0.022855975323448803
1.5905,0.06134391324053962
1.591,0.045187323303397586
1.5915000000000001,-0.04101931856338216
1.592,-0.1392332510981486
1.5925,-0.1686591001115313
1.593,-0.10829279491549994
1.5935000000000001,-0.018379497753330355
1.594,0.020467356062628818
1.5945,-0.01735483734359477
1.595,-0.08778240889257424
1.5955000000000001,-0.1270216858205464
1.596,-0.1077572476440068
1.5965,-0.051459214242016355
1.597,0.0014992375012788592
1.5975000000000001,0.02665259197662971
1.598,0.025069926220197915
1.5985,0.009509832722541658
1.599,-0.010973841086462155
1.5995000000000001,-0.03319281453415116
1.6,-0.05195808437419701
1.6005,-0.05448134414656697
1.601,-0.02655651620273003
1.6015,0.030978853305101816
1.602,0.09134099513739066
1.6025,0.11464335743944269
1.603,0.0806206820387673
1.6035,0.010912359378112918
1.604,-0.044811423712584064
1.6045,-0.04874105748760392
1.605,-0.0037611486402813286
1.6055,0.05273265457934141
1.606,0.07855201736043979
1.6065,0.053041168335221885
1.607,-0.013316431064167984
1.6075,-0.08464216515819943
1.608,-0.11905470677332196
1.6085,-0.09815078655756856
1.609,-0.047069163429158685
1.6095,-0.01778187231088068
1.61,-0.03947644713811833
1.6105,-0.08671719653777914
1.611,-0.10771162781612019
1.6115,-0.08345938709127321
1.612,-0.046889846196610796
1.6125,-0.0403480040096641
1.613,-0.0650211499639765
1.6135,-0.08250385740990615
1.614,-0.0639220981585425
1.6145,-0.02571351925020663
1.615,-0.009088031042346099
1.6155,-0.02841736252958848
1.616,-0.04986000216271521
1.6165,-0.027529805550565244
1.617,0.03940107132321405
1.6175,0.09399079502264263
1.618,0.07579945866835684
1.6185,-0.013281685186877218
1.619,-0.1060036231343493
1.6195,-0.13247481476047673
1.62,-0.0801350117494619
1.6205,0.004606347743374423
1.621,0.06302073174498243
1.6215,0.06947196412280617
1.622,0.039504972748901156
1.6225,0.004629575779229872
1.623,-0.01567187468859747
1.6235,-0.021684620265495294
1.624,-0.021965532982792635
1.6245,-0.018542065843863316
1.625,-0.005215366173965208
1.6255,0.019222716033462667
1.6260000000000001,0.04167116197345147
1.6265,0.04526520628121038
1.627,0.027932356553264398
1.6275,0.0057599018326559715
1.6280000000000001,-0.002324085858133632
1.6285,0.007398710051551223
1.629,0.019190528701361835
1.6295,0.012276427737132806
1.6300000000000001,-0.019068291378420917
1.6305,-0.061930662430518126
1.631,-0.10136341129264746
1.6315,-0.1331316169201821
1.6320000000000001,-0.1542121714963216
1.6325,-0.1483807822611843
1.633,-0.09618042604100345
1.6335,-0.004128724425012263
1.6340000000000001,0.08560369193702418
1.6345,0.12600052633461303
1.635,0.10689964522910193
1.6355,0.06010829399295381
1.6360000000000001,0.022411710705877552
1.6365,0.002706823271281286
1.637,-0.00867654830523537
1.6375,-0.01148264476657569
1.6380000000000001,0.003939990608256812
1.6385,0.030708609763656393
1.639,0.04266260689047378
1.6395,0.025063460878846876
1.6400000000000001,-0.007287341328258259
1.6405,-0.03011763009004484
1.641,-0.035956352531391664
1.6415,-0.033408498913794306
1.6420000000000001,-0.03046848336306904
1.6425,-0.029291559846872033
1.643,-0.034404617178118116
1.6435,-0.053602045647458345
1.6440000000000001,-0.08446814774896377
1.6445,-0.10936943407335128
1.645,-0.11488856170348426
1.6455,-0.11031442069033212
1.6460000000000001,-0.11463368551623837
1.6465,-0.12872357893277925
1.647,-0.13341163043279194
1.6475,-0.11585750773271916
1.6480000000000001,-0.08590060149877439
1.6485,-0.060912845917647784
1.649,-0.04434607549060943
1.6495,-0.02837839268653091
1.6500000000000001,-0.010760920206526458
1.6505,0.003134037769326044
1.651,0.014350101710435246
1.6515,0.03626549805685375
1.6520000000000001,0.08029374521216136
1.6525,0.13689262542020633
1.653,0.17576360336470712
1.6535,0.16894073028622475
1.6540000000000001,0.11413035818076273
1.6545,0.035966284242905634
1.655,-0.03181965567327367
1.6555,-0.06522895838907555
1.6560000000000001,-0.06016580276317959
1.6565,-0.03347870208854224
1.657,-0.012036149030867388
1.6575,-0.011485569725300022
1.6580000000000001,-0.02377610004392972
1.6585,-0.030642297550639852
1.659,-0.02764950750834207
1.6595,-0.02757034634426144
1.6600000000000001,-0.04102431581720179
1.6605,-0.06224812347717422
1.661,-0.07703827061613677
1.6615,-0.08004969385786997
1.6620000000000001,-0.07977445240616828
1.6625,-0.08634708147862354
1.663,-0.09647406816980016
1.6635,-0.09360528880805367
1.6640000000000001,-0.06707453957416061
1.6645,-0.029973929330251226
1.665,-0.01089535825482935
1.6655,-0.025701971681288124
1.666,-0.061888966298405186
1.6665,-0.09085707766709636
1.667,-0.09083280849383037
1.6675,-0.05767887191276607
1.668,0.0006290481880957795
1.6685,0.07344118397510187
1.669,0.1480490780807538
1.6695,0.2033101555227928
1.67,0.2129543474462565
1.6705,0.16674825990004533
1.671,0.08699481835717941
1.6715,0.012881473774760894
1.672,-0.032735996276483076
1.6725,-0.05331960541328756
1.673,-0.0594557718317259
1.6735,-0.05268312248474486
1.674,-0.029245479853286425
1.6745,0.009621786360465125
1.675,0.0512584245474546
1.6755,0.06899773344745784
1.676,0.03404775171903358
1.6765,-0.05220365237000345
1.677,-0.13830971167391945
1.6775,-0.15698271055648655
1.678,-0.09193226253537996
1.6785,0.0006384045358242239
1.679,0.04926792356622139
1.6795,0.037326794222045066
1.68,0.0024717524430294697
1.6805,-0.024985627832651985
1.681,-0.05752087534160259
1.6815,-0.11420859994123965
1.682,-0.16847988556031482
1.6825,-0.15898138636625414
1.683,-0.059870177915703135
1.6835,0.0730453932453567
1.684,0.14062708662457915
1.6845,0.08803206752139883
1.685,-0.04794689845148609
1.6855,-0.17655391743006693
1.686,-0.23149675337845457
1.6865,-0.2117347539045898
1.687,-0.15700783207944233
1.6875,-0.0994579654158467
1.688,-0.0437894447821353
1.6885000000000001,0.0160502320323422
1.689,0.07349356787224255
1.6895,0.10559481585744865
1.69,0.09254705457267705
1.6905000000000001,0.04479564117176789
1.691,0.007518853207731624
1.6915,0.022600964923985622
1.692,0.07800790163783451
1.6925000000000001,0.10836964028112096
1.693,0.06164751576984471
1.6935,-0.03958650721373492
1.694,-0.11780113960992689
1.6945000000000001,-0.12079830807771563
1.695,-0.0694569689720016
1.6955,-0.02279307251060115
1.696,-0.009294395503370294
1.6965000000000001,-0.00603800374642339
1.697,0.017971518058699707
1.6975,0.05543749434396043
1.698,0.06912647793866813
1.6985000000000001,0.03853204422324627
1.699,-0.016307978533705383
1.6995,-0.057047857178580616
1.7,-0.061085101567062386
1.7005000000000001,-0.03222027895244338
1.701,0.009220631189319138
1.7015,0.03825159523625547
1.702,0.034917667622751135
1.7025000000000001,-0.004804034183293702
1.703,-0.062036434514859906
1.7035,-0.0998674653274533
1.704,-0.08238298375106047
1.7045000000000001,-0.0036064163826492433
1.705,0.09527978350351715
1.7055,0.15086292082850403
1.706,0.13316485842979528
1.7065000000000001,0.06965809329608855
1.707,0.00623383203132192
1.7075,-0.043004135496767154
1.708,-0.09325943603835653
1.7085000000000001,-0.14641732595780138
1.709,-0.172236392816246
1.7095,-0.13766927736345858
1.71,-0.04566572273682279
1.7105000000000001,0.05923781837237059
1.711,0.12131570905195534
1.7115,0.11302216434909873
1.712,0.05225771928089853
1.7125000000000001,-0.015919040358131686
1.713,-0.0564686798470256
1.7135,-0.06702262474531952
1.714,-0.06761099837327875
1.7145000000000001,-0.07214953892451083
1.715,-0.07432270211730184
1.7155,-0.06275764014305221
1.716,-0.045154074095821006
1.7165000000000001,-0.048842416706568456
1.717,-0.09101589229315653
1.7175,-0.14956557531718775
1.718,-0.17326865006978162
1.7185000000000001,-0.12942137177030466
1.719,-0.037958139142130524
1.7195,0.048580640028594
1.72,0.09461855847064993
1.7205000000000001,0.10330807081121894
1.721,0.09547082685537914
1.7215,0.08256764439345271
1.722,0.06418427372172357
1.7225000000000001,0.04022060323313139
1.723,0.015256641196369181
1.7235,-0.006679168216314804
1.724,-0.025000836996324573
1.7245000000000001,-0.039956848604417644
1.725,-0.05051966600248379
1.7255,-0.05623913252451893
1.726,-0.06132686719222878
1.7265000000000001,-0.07510120654906446
1.727,-0.10323198766552506
1.7275,-0.13642083061403137
1.728,-0.1527883534156291
1.7285,-0.13631994793185412
1.729,-0.09187664672927949
1.7295,-0.03926904305908434
1.73,0.0062288688818324875
1.7305,0.04358742670978182
1.731,0.0771677775644847
1.7315,0.10473573028920025
1.732,0.11676290494040129
1.7325,0.1040686268771699
1.733,0.06677147534689472
1.7335,0.020673989180005143
1.734,-0.0065076916259512885
1.7345,0.0066903792869934834
1.735,0.05550545317417964
1.7355,0.10794330816005612
1.736,0.12769729007435301
1.7365,0.1008949908878365
1.737,0.04124954872053971
1.7375,-0.027228412513441477
1.738,-0.08553835652929256
1.7385,-0.11832242807741768
1.739,-0.11130397463813037
1.7395,-0.06494284821279925
1.74,-0.008873346612881278
1.7405,0.01352396742049142
1.741,-0.014382670995779506
1.7415,-0.062295427831813154
1.742,-0.08224364198432364
1.7425,-0.05931255209313299
1.743,-0.02888324500920397
1.7435,-0.03932548405165571
1.744,-0.09687057168867352
1.7445,-0.151302395900186
1.745,-0.14112143214971018
1.7455,-0.05413390707546607
1.746,0.057523438190068464
1.7465,0.12179508853428508
1.747,0.10613322269508486
1.7475,0.037922933985459456
1.748,-0.026302094432456978
1.7485,-0.04871555098873206
1.749,-0.03243979830748575
1.7495,-0.0064524218343799305
1.75,0.0037407266517936436
1.7505,-0.007415576914379779
1.7510000000000001,-0.02841560985540748
1.7515,-0.04385279428881272
1.752,-0.046403526222564176
1.7525,-0.039518771437194664
1.7530000000000001,-0.029594406402337625
1.7535,-0.015258457783139865
1.754,0.013450746841256798
1.7545,0.06075100391104148
1.7550000000000001,0.10988362369683086
1.7555,0.1283034562115755
1.756,0.09379397383641398
1.7565,0.01762058953598251
1.7570000000000001,-0.05948400328140499
1.7575,-0.09928719501693709
1.758,-0.09740175028135382
1.7585,-0.08029883004752009
1.7590000000000001,-0.07029896786821818
1.7595,-0.060416858699115714
1.76,-0.029821599794409154
1.7605,0.020235665338721877
1.7610000000000001,0.056175333129203364
1.7615,0.04295535491582381
1.762,-0.01803632379325197
1.7625,-0.08702106530944385
1.7630000000000001,-0.12161878582502703
1.7635,-0.11191664993207139
1.764,-0.08086180355911865
1.7645,-0.05485527624877949
1.7650000000000001,-0.04054791627873149
1.7655,-0.032288825282775074
1.766,-0.03141116664227442
1.7665,-0.04511231238098702
1.7670000000000001,-0.07028330161707032
1.7675,-0.09082005848571961
1.768,-0.09068055819209213
1.7685,-0.06359872471712204
1.7690000000000001,-0.014137347057764591
1.7695,0.04341093645413073
1.77,0.08871373819951714
1.7705,0.10500807879096943
1.7710000000000001,0.08955691005418188
1.7715,0.05567363339859835
1.772,0.024287097491942196
1.7725,0.012064668772456521
1.7730000000000001,0.023600767730736005
1.7735,0.04972071333942077
1.774,0.07096561131071777
1.7745,0.06636199772468686
1.7750000000000001,0.027444384973710774
1.7755,-0.029254571254535545
1.776,-0.06612927397113663
1.7765,-0.05201239821982406
1.7770000000000001,0.005246541255930736
1.7775,0.056077168241250065
1.778,0.05017184768315196
1.7785,-0.013853340901752163
1.7790000000000001,-0.08529646247586004
1.7795,-0.11174901699771544
1.78,-0.08603087772740008
1.7805,-0.039342890455735476
1.7810000000000001,0.0008758367877006084
1.7815,0.03194361697549993
1.782,0.057566892641015485
1.7825,0.06722296388828013
1.7830000000000001,0.04633896420569769
1.7835,0.00032738936037898987
1.784,-0.04276663090675379
1.7845,-0.05347751956239122
1.7850000000000001,-0.022216986175168166
1.7855,0.0336230678313855
1.786,0.07706206593327722
1.7865,0.0722257129340539
1.7870000000000001,0.011368714547091912
1.7875,-0.07174091878669314
1.788,-0.1222005494331119
1.7885,-0.11065617991231341
1.7890000000000001,-0.06317821938164317
1.7895,-0.03723027069059131
1.79,-0.06313061514307827
1.7905,-0.11254982016748828
1.7910000000000001,-0.1296157726633407
1.7915,-0.09277609416179629
1.792,-0.03860676910793262
1.7925,-0.018154350517951803
1.793,-0.03689475951054471
1.7935,-0.05269405005330004
1.794,-0.033088029343786
1.7945,0.004051126835577588
1.795,0.01777213340668491
1.7955,-0.0012150409230844497
1.796,-0.02021258693586449
1.7965,-0.007167916414939949
1.797,0.029355785701859177
1.7975,0.048579811634860776
1.798,0.022306007387044337
1.7985,-0.03368498652341112
1.799,-0.07320594068415315
1.7995,-0.0602791247558471
1.8,0.003745391558135243
1.8005,0.08514699472295373
1.801,0.14323519800742765
1.8015,0.15432910835030897
1.802,0.11994734948123217
1.8025,0.06021063566057035
1.803,0.0027070867592523537
1.8035,-0.02868730338580864
1.804,-0.026285238445553718
1.8045,-0.0053566446534901065
1.805,0.006206767406226407
1.8055,-0.009922602947076802
1.806,-0.049799136055401455
1.8065,-0.09410961554315662
1.807,-0.12183801396797164
1.8075,-0.11733448449895238
1.808,-0.07610055664246748
1.8085,-0.015484746061557789
1.809,0.0252351449955658
1.8095,0.011264748939912486
1.81,-0.054255886676612734
1.8105,-0.12755580510741873
1.811,-0.1578915982334329
1.8115,-0.12432849134317228
1.812,-0.04581199378630629
1.8125,0.03528580392868585
1.813,0.079790425430404
1.8135000000000001,0.07432273786961079
1.814,0.03836975814234658
1.8145,0.008519483633803424
1.815,0.009446973320906082
1.8155000000000001,0.037503911004777825
1.816,0.07025293298598247
1.8165,0.08572498374274645
1.817,0.07391814933522725
1.8175000000000001,0.04324542029344662
1.818,0.019916232954767903
1.8185,0.027537254606253045
1.819,0.05989947335955157
1.8195000000000001,0.08205463009512992
1.82,0.06385748482378278
1.8205,0.007743790222085333
1.821,-0.05916750063126626
1.8215000000000001,-0.11335387013583155
1.822,-0.1472587111570277
1.8225,-0.15690379088899004
1.823,-0.13188773122635233
1.8235000000000001,-0.06921988185284382
1.824,0.00658355426883879
1.8245,0.05107706352684349
1.825,0.03740964445510274
1.8255000000000001,-0.015570885412155325
1.826,-0.061188256270407
1.8265,-0.07294460056773598
1.827,-0.06682997739882905
1.8275000000000001,-0.0717392561450462
1.828,-0.0870209557623692
1.8285,-0.08133994114048756
1.829,-0.03397269976239451
1.8295000000000001,0.03269444236366716
1.83,0.07037341072433578
1.8305,0.054751791054407396
1.831,0.012315402301358334
1.8315000000000001,-0.006715122307225493
1.832,0.020920863862434608
1.8325,0.07161426115932734
1.833,0.09993143945030064
1.8335000000000001,0.07657961005223347
1.834,0.00899238813815317
1.8345,-0.061917112247427394
1.835,-0.08707234230367199
1.8355000000000001,-0.04752171428193265
1.836,0.023584782574191172
1.8365,0.06487050347863932
1.837,0.04194757829716884
1.8375000000000001,-0.022889703765226692
1.838,-0.07856393493995305
1.8385,-0.09414386703893424
1.839,-0.07340203794080094
1.8395000000000001,-0.033945233899274965
1.84,0.008184538190016893
1.8405,0.035972553832101045
1.841,0.03570889046604369
1.8415000000000001,0.012127988001899216
1.842,-0.013210972377466322
1.8425,-0.025793740866069007
1.843,-0.03223764554777312
1.8435000000000001,-0.04499469768252347
1.844,-0.06017411769071828
1.8445,-0.058622772953128996
1.845,-0.026785460372167596
1.8455000000000001,0.028119851244854444
1.846,0.07926892873432781
1.8465,0.09245322970552936
1.847,0.04795105072969782
1.8475000000000001,-0.03562060703738429
1.848,-0.10341806617086119
1.8485,-0.10686373500784835
1.849,-0.04973742808999913
1.8495000000000001,0.015657672041328934
1.85,0.04159973742754415
1.8505,0.028042652302817113
1.851,0.009432785968992575
1.8515000000000001,0.006199004276620127
1.852,0.0022220192279721433
1.8525,-0.024348999957175696
1.853,-0.059838529244527136
1.8535000000000001,-0.06424028365244262
1.854,-0.024731019895025345
1.8545,0.01946505704997646
1.855,0.02078304782918647
1.8555000000000001,-0.018497757647489545
1.856,-0.04865303570951208
1.8565,-0.030000825386296868
1.857,0.025123130897321173
1.8575,0.06800222381253508
1.858,0.06296596432650665
1.8585,0.01945609892813731
1.859,-0.02312857039892447
1.8595,-0.040408995432459294
1.86,-0.04626039643411388
1.8605,-0.06626160408517497
1.861,-0.0965928982408327
1.8615,-0.10370868048584964
1.862,-0.06539586203048003
1.8625,0.0010840975784301658
1.863,0.058082104957064416
1.8635,0.08536899130186373
1.864,0.09065607417186428
1.8645,0.08931773024915118
1.865,0.0842211271115035
1.8655,0.0652916052170406
1.866,0.02384826627698303
1.8665,-0.03322161760269943
1.867,-0.08380413009470117
1.8675,-0.1070712395491777
1.868,-0.09823775984338115
1.8685,-0.06629213715461793
1.869,-0.023371981198432878
1.8695,0.01968763693323467
1.87,0.05319791619600724
1.8705,0.07043163794224475
1.871,0.06886056063551868
1.8715,0.047728561962033914
1.872,0.008102522473603319
1.8725,-0.03942196970032539
1.873,-0.07025888715877185
1.8735,-0.060314325649793825
1.874,-0.010826264046982286
1.8745,0.04613092984885787
1.875,0.07213085495151159
1.8755,0.0517255836276942
1.8760000000000001,-0.0021550494718009907
1.8765,-0.06557419435838495
1.877,-0.12021613511839366
1.8775,-0.15580096731776757
1.8780000000000001,-0.16676006167054855
1.8785,-0.15337821663088702
1.879,-0.12351773485505546
1.8795,-0.08747075825174568
1.8800000000000001,-0.04840971126127725
1.8805,0.0004799412836581675
1.881,0.06315992507479747
1.8815,0.1206658122548502
1.8820000000000001,0.13220408008377116
1.8825,0.0731448825368356
1.883,-0.023051946237297664
1.8835,-0.07588206666339471
1.8840000000000001,-0.028113519821457423
1.8845,0.09351096178570567
1.885,0.19683869195311937
1.8855,0.2078466367518657
1.8860000000000001,0.13404964136467382
1.8865,0.04609599171880865
1.887,0.004358359899990724
1.8875,0.009478245142570084
1.8880000000000001,0.01795315356149712
1.8885,-0.006937919937602245
1.889,-0.06084191032615071
1.8895,-0.10410373701058107
1.8900000000000001,-0.09785760559776445
1.8905,-0.04290787877552191
1.891,0.012454931503241786
1.8915,0.013449944248533765
1.8920000000000001,-0.04284995716213976
1.8925,-0.09902216134302198
1.893,-0.10010968526899977
1.8935,-0.05758175122095922
1.8940000000000001,-0.03309563929428058
1.8945,-0.06126260765806162
1.895,-0.10978442436015744
1.8955,-0.12230374767588673
1.8960000000000001,-0.08193267873531199
1.8965,-0.018720395664887
1.897,0.033596145306736054
1.8975,0.0677209570411994
1.8980000000000001,0.0880913817291181
1.8985,0.08576989600003673
1.899,0.0464129081744367
1.8995,-0.01997485764950013
1.9000000000000001,-0.07356288414057707
1.9005,-0.07572425974425238
1.901,-0.02305388181956842
1.9015,0.046943155993657504
1.9020000000000001,0.08139822073583756
1.9025,0.052646757275908174
1.903,-0.015630927091265054
1.9035,-0.06530256223661088
1.9040000000000001,-0.05556522238104454
1.9045,0.0001286947620421034
1.905,0.049671365566974365
1.9055,0.05213474753101339
1.9060000000000001,0.011944156844654039
1.9065,-0.030531890650523606
1.907,-0.03809795656950725
1.9075,-0.008927352922581278
1.9080000000000001,0.02583680907050921
1.9085,0.03407041919747637
1.909,0.01173161549245497
1.9095,-0.01731761712392563
1.9100000000000001,-0.026212060045465238
1.9105,-0.00883899475617331
1.911,0.017794954721542286
1.9115,0.030339324705444155
1.9120000000000001,0.01715821440038228
1.9125,-0.01552562096935695
1.913,-0.049278315572931816
1.9135,-0.06479090434311949
1.9140000000000001,-0.05317390580965013
1.9145,-0.02169708437202236
1.915,0.01065413274849544
1.9155,0.026818387699656103
1.9160000000000001,0.024239374351709603
1.9165,0.013999283485840687
1.917,0.00686435863014981
1.9175,0.0013885920933039736
1.9180000000000001,-0.013082220236207105
1.9185,-0.04239274376631858
1.919,-0.07774100622212886
1.9195,-0.0997749151480314
1.92,-0.09168759255012818
1.9205,-0.04927595140507479
1.921,0.01706777049653942
1.9215,0.08548889741563889
1.922,0.13018925754863234
1.9225,0.13469722358605962
1.923,0.10451869856168362
1.9235,0.06664787392393384
1.924,0.05137025385470429
1.9245,0.06814758687897474
1.925,0.09629190642616947
1.9255,0.10110344633699751
1.926,0.06251036848447755
1.9265,-0.009787962829197375
1.927,-0.08579721777710472
1.9275,-0.1355835265581593
1.928,-0.14356598963476688
1.9285,-0.11431732817771914
1.929,-0.07068068458716707
1.9295,-0.039384326107013805
1.93,-0.030493041108509845
1.9305,-0.033677701372391955
1.931,-0.038515931854524614
1.9315,-0.049118614383562624
1.932,-0.06693740424675126
1.9325,-0.06817759577245933
1.933,-0.022753886321260727
1.9335,0.0566079583813051
1.934,0.10494326269933905
1.9345,0.06732757095226732
1.935,-0.03251217492120914
1.9355,-0.10680218575818422
1.936,-0.09503718730624702
1.9365,-0.026458202040560208
1.937,0.0203089195362543
1.9375,0.008617168561651466
1.938,-0.022696406761187442
1.9385000000000001,-0.014519774603232416
1.939,0.041109565600375285
1.9395,0.09324087362503991
1.94,0.08929798793906474
1.9405000000000001,0.030622124608799848
1.941,-0.03173013454722213
1.9415,-0.051750493335455526
1.942,-0.033504895424172114
1.9425000000000001,-0.02107853260217473
1.943,-0.04759222682192451
1.9435,-0.0986434334149943
1.944,-0.12777809200810264
1.9445000000000001,-0.10493523876472949
1.945,-0.04499449210856338
1.9455,0.011047049295468639
1.946,0.03694517927517213
1.9465000000000001,0.03936117420112642
1.947,0.040204115600274246
1.9475,0.0503028451219208
1.948,0.06244932545528823
1.9485000000000001,0.06209635441867746
1.949,0.04000361739537797
1.9495,0.0012032407585413735
1.95,-0.032981510723953986
1.9505000000000001,-0.038185591166518054
1.951,-0.008748015679723236
1.9515,0.03643050611307956
1.952,0.07119476579665954
1.9525000000000001,0.0812364248079125
1.953,0.06826675630962446
1.9535,0.0453385821475583
1.954,0.03085556591230338
1.9545000000000001,0.037079368403563635
1.955,0.05566350863733509
1.9555,0.05969517523287864
1.956,0.030997380808660213
1.9565000000000001,-0.015949714028208117
1.957,-0.04953404342336278
1.9575,-0.06103159661789953
1.958,-0.07209542004990398
1.9585000000000001,-0.09446304176398163
1.959,-0.10083443414884664
1.9595,-0.0564767110120004
1.96,0.026296660094696257
1.9605000000000001,0.08682258359472159
1.961,0.07739639768529429
1.9615,0.016978393935759454
1.962,-0.02552006988389343
1.9625000000000001,-0.0024073248003150596
1.963,0.06196778229990523
1.9635,0.09506503650101952
1.964,0.052379042302303995
1.9645000000000001,-0.032526375440425054
1.965,-0.08018063185221737
1.9655,-0.04994341881644374
1.966,0.014562149332643515
1.9665000000000001,0.032855644582212504
1.967,-0.024408049848537776
1.9675,-0.10597675632953209
1.968,-0.1372585175476791
1.9685000000000001,-0.09588632151618252
1.969,-0.027643136274612318
1.9695,0.0045087758051667775
1.97,-0.018929280222825078
1.9705000000000001,-0.062445268321068295
1.971,-0.07866815730097435
1.9715,-0.05626837507609769
1.972,-0.020726849135151958
1.9725000000000001,0.006657535005380084
1.973,0.03446833414392349
1.9735,0.07686738050642197
1.974,0.1160028726195483
1.9745000000000001,0.10939695358730676
1.975,0.03940433851544143
1.9755,-0.05702960847400331
1.976,-0.1170897792951692
1.9765000000000001,-0.10729559688563166
1.977,-0.046240413427938956
1.9775,0.02083487997861861
1.978,0.06020402185755569
1.9785000000000001,0.06514250554518618
1.979,0.04793044785421283
1.9795,0.025943058015973325
1.98,0.011859491416033556
1.9805000000000001,0.009960715976919925
1.981,0.018597639284498983
1.9815,0.03284837271326367
1.982,0.041320589624770025
1.9825000000000002,0.026837424831172782
1.983,-0.01611451286549714
1.9835,-0.063184016715913
1.984,-0.07422568254559354
1.9845,-0.036128001415654254
1.985,0.014824430654485153
1.9855,0.02440478803172553
1.986,-0.023686915640356347
1.9865,-0.08792807454892228
1.987,-0.10809878494886055
1.9875,-0.06275355441287983
1.988,0.014644958973417428
1.9885,0.07301167274823314
1.989,0.08997858836812775
1.9895,0.08185036407230432
1.99,0.07603576717853877
1.9905,0.07950206746750701
1.991,0.07427080983957318
1.9915,0.04207121550201144
1.992,-0.009834048161586248
1.9925,-0.052851589362623436
1.993,-0.06809809688138199
1.9935,-0.06526173831315035
1.994,-0.06502549319398568
1.9945,-0.07038205439609016
1.995,-0.06358098408929605
1.9955,-0.026718117982281603
1.996,0.039901750279597054
1.9965,0.11341964204213542
1.997,0.15797818662936658
1.9975,0.1471727310973971
1.998,0.08650222918366315
1.9985,0.01403954212007329
1.999,-0.02573158286988136
1.9995,-0.015232147493436562
2.0,0.12755334843489657
2.0005,0.24214591184295484
2.001,0.1245300783889086
2.0015,-0.1571700572018749
2.0020000000000002,-0.43177093961006474
2.0025,-0.5925896844258832
2.003,-0.6215756708968541
2.0035,-0.5187910269242486
2.004,-0.3127719540597243
2.0045,-0.12257962971034146
2.005,-0.09994774917644847
2.0055,-0.2759826354281602
2.0060000000000002,-0.5225614421055634
2.0065,-0.678373476797794
2.007,-0.6524478910080141
2.0075,-0.39899886548368063
2.008,0.09249622509580709
2.0085,0.6839180547806328
2.009,1.0443958453701048
2.0095,0.8885344594342048
2.0100000000000002,0.2994889505425564
2.0105,-0.2868129153591509
2.011,-0.47976204674028766
2.0115,-0.27137549828608276
2.012,0.047519707801185564
2.0125,0.2368272355714231
2.013,0.3008078128061039
2.0135,0.3620023622423182
2.0140000000000002,0.43963396466866794
2.0145,0.41266195514866283
2.015,0.18202801707089264
2.0155,-0.18237363844500376
2.016,-0.4738809961732204
2.0165,-0.5046246281446255
2.017,-0.22837450344973678
2.0175,0.23026461960120811
2.0180000000000002,0.6176312346459135
2.0185,0.669600914947341
2.019,0.2962213750876637
2.0195,-0.3014224727723884
2.02,-0.7443227971293584
2.0205,-0.7723678171501391
2.021,-0.44299944079515613
2.0215,-0.03246869404314752
2.0220000000000002,0.21716523124196996
2.0225,0.22620028657859134
2.023,0.03253028075150241
2.0235,-0.269733353349247
2.024,-0.5456164845105597
2.0245,-0.6673491885708535
2.025,-0.5990866810532196
2.0255,-0.40620432169533827
2.0260000000000002,-0.16491539500303015
2.0265,0.10640762106843234
2.027,0.41388092299165086
2.0275,0.714313871840874
2.028,0.9003124241995515
2.0285,0.8707446426700123
2.029,0.6288606242281237
2.0295,0.3157350960725021
2.0300000000000002,0.1245951574593202
2.0305,0.14224497803867636
2.031,0.26243467007131904
2.0315,0.2867896414619501
2.032,0.133599672107429
2.0325,-0.07552396817233517
2.033,-0.15902523927444973
2.0335,-0.08269140605155674
2.0340000000000003,0.014607100164241861
2.0345,-0.00526529652097972
2.035,-0.1307857490692873
2.0355,-0.24159036202747056
2.036,-0.2519523480953562
2.0365,-0.18011730381722646
2.037,-0.09808683201804778
2.0375,-0.04357886489278009
2.0380000000000003,0.00892060582674966
2.0385,0.08121170867813471
2.039,0.10762171635197999
2.0395,-0.018896292633350693
2.04,-0.2768089495662777
2.0405,-0.46176472649437905
2.041,-0.38938073736213186
2.0415,-0.11463855671046831
2.0420000000000003,0.1321924741942823
2.0425,0.19457454979728653
2.043,0.10284095778105812
2.0435,-0.018638856934538744
2.044,-0.07530840161104588
2.0445,-0.05154646095838571
2.045,-0.002869932020404505
2.0455,-0.008502781264799215
2.0460000000000003,-0.09928233609149623
2.0465,-0.21247476996644296
2.047,-0.22030933591950405
2.0475,-0.02786708164437912
2.048,0.32929686658035084
2.0485,0.6870703585225907
2.049,0.862747831495322
2.0495,0.7514617948462962
2.05,0.3322272154565505
2.0505,-0.3365122391930311
2.051,-1.0684380164350833
2.0515,-1.553739964715659
2.052,-1.5270649380261159
2.0525,-0.987740977029367
2.053,-0.23136027291434855
2.0535,0.36759107967096716
2.054,0.6096557752171423
2.0545,0.5348264110181683
2.055,0.3094224960024195
2.0555,0.1009583576873125
2.056,0.014305423276105525
2.0565,0.05020019244042979
2.057,0.10408765262622437
2.0575,0.07032593778472959
2.058,-0.020640924060035475
2.0585,-0.011825409284092689
2.059,0.20428972743239085
2.0595,0.5431164301825996
2.06,0.7773354172313759
2.0605,0.7294429389524182
2.061,0.44543110658738533
2.0615,0.18887053805971837
2.062,0.20428293897969174
2.0625,0.4489752571824708
2.063,0.6095553406345834
2.0635,0.42421605419463576
2.064,-0.04146071816784959
2.0645000000000002,-0.4606578503921332
2.065,-0.5730086932072719
2.0655,-0.44562834164314485
2.066,-0.40063182840523
2.0665,-0.654501784604389
2.067,-1.036926974957257
2.0675,-1.1131138675898304
2.068,-0.6020054237855218
2.0685000000000002,0.3376059947828943
2.069,1.217625199768154
2.0695,1.5838274994926629
2.07,1.3055875874883482
2.0705,0.6095802088864617
2.071,-0.11103806500165261
