tiempo_s,senal_cruda,senal_filtrada,rectificada,envolvente,rms_movil
0.0,-0.0075972082986875,0.00644760282158581,0.00644760282158581,0.0,0.06554129345823823
0.0005,0.0566005942234881,0.06348535645051386,0.06348535645051386,0.0,0.06577934404669276
0.001,0.0761051103686795,0.08351285031244594,0.08351285031244594,0.0,0.06604459549480704
0.0015,0.0680923661445901,0.08027891289616804,0.08027891289616804,0.0,0.06614422971513814
0.002,0.0910990227134791,0.10304803107060054,0.10304803107060054,0.0,0.06614549709667827
0.0025,0.16850265694012,0.17392376333559054,0.17392376333559054,0.0,0.06618458436589217
0.003,0.2551505681360607,0.2555622963316667,0.2555622963316667,0.0,0.06629670538478599
0.0035,0.286188411457945,0.2875289438644546,0.2875289438644546,0.0,0.06643268905254308
0.004,0.2439312360796624,0.24753547240210777,0.24753547240210777,0.0,0.06651680457280398
0.0045,0.1687280804417916,0.17094372989523712,0.17094372989523712,0.0,0.06652698411481649
0.005,0.116137774279687,0.11496824235153984,0.11496824235153984,0.0,0.0665471028094574
0.0055,0.1132435582716787,0.11031766901417919,0.11031766901417919,0.0,0.06665609044067512
0.006,0.1471194903917412,0.1438865554035047,0.1438865554035047,0.0,0.06679653973993877
0.0065,0.1811677162301006,0.17740123797061225,0.17740123797061225,0.0,0.06687227219077475
0.007,0.1822988569702112,0.17790175444213985,0.17790175444213985,0.0,0.06688429849307799
0.0075,0.1422368922715728,0.1370891980458946,0.1370891980458946,0.0,0.06688632685092219
0.008,0.0792179007871664,0.07231875890513201,0.07231875890513201,0.0,0.06691600937880318
0.0085,0.0210055408737615,0.01280061730297341,0.01280061730297341,0.0,0.066999409189726
0.009,-0.0148243081377023,-0.021696665534252216,0.021696665534252216,0.0,0.06714253445573616
0.0095,-0.0318876824108189,-0.03735123912681487,0.03735123912681487,0.0,0.06728850235055678
0.01,-0.0530835422834241,-0.061288931323800255,0.061288931323800255,0.0005932197411244036,0.06735644895249891
0.0105,-0.0979938610382865,-0.11047048900019138,0.11047048900019138,0.0015554927472478737,0.06735866447518561
0.011,-0.149074430137159,-0.16070240428770383,0.16070240428770383,0.00251462926181731,0.06738736649546255
0.0115,-0.1507476801192115,-0.1571194359707567,0.1571194359707567,0.003470532956954646,0.06747590237322713
0.012,-0.0663506632357797,-0.07116947650979416,0.07116947650979416,0.004423108276866505,0.06755575381497682
0.0125,0.0616499663770143,0.051731582899552556,0.051731582899552556,0.005372260460188936,0.06757115615767066
0.013,0.1317047843669599,0.11707009454384137,0.11707009454384137,0.0063178955619819805,0.06758278475073695
0.0135,0.080392845378314,0.06787341794534277,0.06787341794534277,0.0072599204753674455,0.06766365898294296
0.014,-0.0473188928430132,-0.0542376860844921,0.0542376860844921,0.00819824295280362,0.06775331956327628
0.0145,-0.1376817295639698,-0.14303497880902627,0.14303497880902627,0.009132771626990974,0.067783306372142
0.015,-0.1172098551493789,-0.12603469179412563,0.12603469179412563,0.010063416031403163,0.06778568336788214
0.0155,-0.016160014342581,-0.02794963743963126,0.02794963743963126,0.01099008662043796,0.06778756136795051
0.016,0.0714322606728749,0.060601092702093684,0.060601092702093684,0.011912694789182988,0.0677982036936285
0.0165,0.0790193973558568,0.07074931927550286,0.07074931927550286,0.012831152892791544,0.06780095278104192
0.017,0.0186850789288113,0.011547307940841488,0.011547307940841488,0.013745374265463987,0.06783793491078047
0.0175,-0.0448885777480195,-0.05192470920995729,0.05192470920995729,0.014655273239030478,0.06808311665448159
0.018,-0.0604934161689769,-0.06714969905168247,0.06714969905168247,0.01556076516113101,0.06848323222036189
0.0185,-0.0336791614803668,-0.040553822141789646,0.040553822141789646,0.0164617664129888,0.06877162183454033
0.019,-0.0132797919747746,-0.02154220804948996,0.02154220804948996,0.017358194426773235,0.0688955488677284
0.0195,-0.0371091036360381,-0.04537460899428351,0.04537460899428351,0.018249967702548713,0.06895261836096524
0.02,-0.0887152388926282,-0.09386127743861969,0.09386127743861969,0.019137005824805788,0.06898730872830623
0.0205,-0.1110020688666297,-0.11327867758601352,0.11327867758601352,0.020019229478571175,0.06899047677592433
0.021,-0.0664224608171416,-0.06988112359425282,0.06988112359425282,0.020896560465093254,0.0690301168967461
0.0215,0.0219966911543682,0.015532192412715126,0.015532192412715126,0.02176892171709988,0.06921736162837341
0.022,0.0948873396647541,0.08849435385769393,0.08849435385769393,0.02263623731362552,0.06941997455419285
0.0225,0.1138741035062183,0.11077788182883833,0.11077788182883833,0.023498432494404895,0.06947658457996536
0.023,0.0854992663631804,0.08490713154182412,0.08490713154182412,0.024355433673830553,0.06947659888670872
0.0235,0.0350718876964436,0.034171099313088225,0.034171099313088225,0.02520716845447197,0.06948070229004301
0.024,-0.0255569153991648,-0.02801248593168012,0.02801248593168012,0.026053565640153913,0.06948529249144597
0.0245,-0.0954421039419472,-0.09881141214711435,0.09881141214711435,0.026894555248592095,0.06953034032867265
0.025,-0.1576727212198372,-0.16045208252250173,0.16045208252250173,0.02773006852358421,0.06957386389430703
0.0255,-0.1706306171455628,-0.17086255544161813,0.17086255544161813,0.02856003794675467,0.06958082991454592
0.026,-0.09973604494286,-0.09699742732284865,0.09699742732284865,0.029384397248851547,0.06958083220100851
0.0265,0.0355239426625499,0.03792518633558678,0.03792518633558678,0.030203081420594403,0.06958557652933757
0.027,0.1533590276102036,0.15173648289220532,0.15173648289220532,0.031016026723072132,0.06963061600735795
0.0275,0.1681914640994777,0.1646080328389999,0.1646080328389999,0.031823170697690195,0.06969958868276241
0.028,0.0703832600447662,0.07088060045159976,0.07088060045159976,0.03262445217566702,0.06972007950350827
0.0285,-0.0599843802884995,-0.05426080402931547,0.05426080402931547,0.03341981128707963,0.06972286314968941
0.029,-0.1297241237550286,-0.12472129480611636,0.12472129480611636,0.034209189469458785,0.06975320512407204
0.0295,-0.1180188755231282,-0.11826754640042145,0.11826754640042145,0.034992529475934314,0.06978480851211674
0.03,-0.0779992594069143,-0.080250872896193,0.080250872896193,0.03576977538293155,0.0698065084305884
0.0305,-0.0632604660851873,-0.06159768224474277,0.06159768224474277,0.03654087259741996,0.06982935835486663
0.031,-0.0714266168860949,-0.06577529212542413,0.06577529212542413,0.03730576786371534,0.06984583118647565
0.0315,-0.0629194112230735,-0.058416609481089544,0.058416609481089544,0.03806440926983719,0.06984721300742312
0.032,-0.0178388145609245,-0.016820188729813862,0.016820188729813862,0.03881674625342302,0.06996021048171883
0.0325,0.0403804283685333,0.04108856704693927,0.04108856704693927,0.03956272960720148,0.07029428866587761
0.033,0.0714483513699076,0.07457660385333116,0.07457660385333116,0.040302311484026306,0.07059867303504469
0.0335,0.0551182148828742,0.058960644321850844,0.058960644321850844,0.04103544540147317,0.0706529125651089
0.034,0.0051704222587502,0.007430295935013393,0.007430295935013393,0.04176208624600143,0.0706886800262846
0.0345,-0.0396681482014772,-0.03802785840442764,0.03802785840442764,0.04248219027668294,0.0709135909026353
0.035,-0.0387127134422082,-0.03585431041904697,0.03585431041904697,0.043195715128499956,0.0711778568992229
0.0355,0.0218649350565014,0.02525550433923781,0.02525550433923781,0.04390261981521435,0.07131285809037273
0.036,0.112336697157252,0.11447195649510115,0.11447195649510115,0.04460286473181023,0.0713356920296456
0.0365,0.1737954257390696,0.17496627248508015,0.17496627248508015,0.045296411656512055,0.0713402768835086
0.037,0.1585761928095983,0.16037006769620332,0.16037006769620332,0.04598322375238037,0.07141493325758218
0.0375,0.0650972024687006,0.06732126499808591,0.06732126499808591,0.046663265568487294,0.07160239518956028
0.038,-0.0604918736033381,-0.059145988214996684,0.059145988214996684,0.047336503040674244,0.07182825366330306
0.0385,-0.1524661668265546,-0.15148068199136477,0.15148068199136477,0.04800290349189455,0.07195681549264085
0.039,-0.1615425984583464,-0.1597674606360157,0.1597674606360157,0.04866243563214392,0.07197745679697963
0.0395,-0.0819894722327961,-0.08054263928401087,0.08054263928401087,0.0493150695579819,0.0719790160068523
0.04,0.0440589249703972,0.04376991844008791,0.04376991844008791,0.04996077675164795,0.07199079877475374
0.0405,0.1539202174762625,0.1532129290835873,0.1532129290835873,0.05059953007977558,0.07200000074678628
0.041,0.2047255246233495,0.20519639908011894,0.20519639908011894,0.051231303791708614,0.07200841155814575
0.0415,0.1910167221746266,0.19154571226470152,0.19154571226470152,0.05185607351742366,0.07202891910812727
0.042,0.1313814392371954,0.13062125589261137,0.13062125589261137,0.052473816265063165,0.07208255002328033
0.0425,0.049134665050458,0.04798765876771667,0.04798765876771667,0.05308451041808373,0.07219050514695002
0.043,-0.0356827588926792,-0.03659693420143348,0.03659693420143348,0.05368813573202483,0.07238076992376222
0.0435,-0.1080947451874912,-0.10988089401692266,0.10988089401692266,0.05428467333090332,0.07269035927989217
0.044,-0.1579052481293912,-0.1603884951373545,0.1603884951373545,0.05487410570323945,0.07310391724538384
0.0445,-0.1764478190775567,-0.17793182218225467,0.17793182218225467,0.055456416697720265,0.07347932856170616
0.045,-0.1583582123943683,-0.15956536265033539,0.15956536265033539,0.05603159151850636,0.07365194043330599
0.0455,-0.1113809031946718,-0.11474928086585393,0.11474928086585393,0.05659961672018826,0.0736616844723723
0.046,-0.0575278795563409,-0.06208958250159516,0.06208958250159516,0.05716048020239884,0.07370150175025117
0.0465,-0.0173388426905313,-0.01984354792477823,0.01984354792477823,0.05771417120408865,0.07381344426884871
0.047,0.0026129893819039,0.0012897414085399628,0.0012897414085399628,0.058260680297471286,0.07388014057082727
0.0475,0.0050231258576828,0.0007393797695301636,0.0007393797695301636,0.05879999938164607,0.07388265444389783
0.048,-0.0034321265807881,-0.010320996416244442,0.010320996416244442,0.05933212167590542,0.07390700526529252
0.0485,-0.006924993882215,-0.011282891696736144,0.011282891696736144,0.0598570417127343,0.07398491061340168
0.049,0.0148651216230538,0.013976322371204747,0.013976322371204747,0.06037475533050868,0.07408829437853189
0.0495,0.0623661608065964,0.05918979450706145,0.05918979450706145,0.06088525966590015,0.07417856064513703
0.05,0.1056540966445017,0.09723903542737124,0.09723903542737124,0.0613885531459934,0.07421130074493464
0.0505,0.1151311931052601,0.10699129574615678,0.10699129574615678,0.0618846354801231,0.07421825504885046
0.051,0.0979076239246952,0.09534746879202019,0.09534746879202019,0.06237350765143685,0.07441340502004526
0.0515,0.085711880611644,0.084753670187775,0.084753670187775,0.06285517190819064,0.07493277582788571
0.052,0.0881531266573074,0.08175758694045758,0.08175758694045758,0.06332963175478329,0.07550506509420378
0.0525,0.0800284413303991,0.06972264800065743,0.06972264800065743,0.0637968919425368,0.0758151407574226
0.053,0.041885258125388,0.03525538843872547,0.03525538843872547,0.06425695846022902,0.07590570773680524
0.0535,-0.0080119407607814,-0.009690299713702236,0.009690299713702236,0.064709838524386,0.07593554706282961
0.054,-0.0366629641164828,-0.04006934688811009,0.04006934688811009,0.06515554056934046,0.07597588860986788
0.0545,-0.0358484936465023,-0.04461531364853424,0.04461531364853424,0.06559407423706363,0.07604726481658476
0.055,-0.0215279768805148,-0.030863949562738857,0.030863949562738857,0.06602545036677704,0.07611309769994072
0.0555,-0.0041115480562828,-0.008748757430734527,0.008748757430734527,0.06644968098435108,0.07614142106929073
0.056,0.0194934299578042,0.017248281055795355,0.017248281055795355,0.06686677929149709,0.07614736499959736
0.0565,0.0443001501730944,0.038583675421932605,0.038583675421932605,0.06727675965475906,0.07614787367094883
0.057,0.0490497023124355,0.03968852694593304,0.03968852694593304,0.06767963759431171,0.07614838397865865
0.0575,0.0226259994169033,0.015014453580503257,0.015014453580503257,0.06807542977257079,0.07615393815640949
0.058,-0.013328984247573,-0.016992946465621467,0.016992946465621467,0.06846415398262186,0.07615978122083378
0.0585,-0.0253186083286295,-0.028857602367236095,0.028857602367236095,0.06884582913647322,0.07616107515913519
0.059,-0.0083009435964152,-0.014743481447072718,0.014743481447072718,0.06922047525313894,0.07620447141945437
0.0595,0.0089984766368807,0.0014680923043459276,0.0014680923043459276,0.06958811344655737,0.07627291201979138
0.06,-0.0003439661554642,-0.006498568845097559,0.006498568845097559,0.06994876591335056,0.07627704184589401
0.0605,-0.0296773216424949,-0.0347436836882003,0.0347436836882003,0.07030245592042995,0.07636380951444066
0.061,-0.043566625566634,-0.048542538498948594,0.048542538498948594,0.07064920779245314,0.07666150092138468
0.0615,-0.0113690091078504,-0.01625076143216051,0.01625076143216051,0.0709890468991365,0.07689403519566847
0.062,0.0602161354687351,0.05537143077892019,0.05537143077892019,0.07132199964242855,0.07691761384153843
0.0625,0.1249035569829799,0.11952499684885616,0.11952499684885616,0.07164809344354825,0.07695304251716042
0.063,0.1319291673244984,0.12585820454333843,0.12585820454333843,0.07196735672989259,0.07704563590764602
0.0635,0.0702802433949756,0.06436347538358086,0.06436347538358086,0.07227981892181776,0.0770627553570401
0.064,-0.0188232612006125,-0.02327415223666543,0.02327415223666543,0.07258551041929807,0.07711452834327036
0.0645,-0.0749769047387005,-0.0778919654404042,0.0778919654404042,0.07288446258846697,0.07746331828337161
0.065,-0.0700123525970445,-0.07340625909675043,0.07340625909675043,0.07317670774804427,0.07805974331473417
0.0655,-0.0309011503968131,-0.0365870738006364,0.0365870738006364,0.07346227915565427,0.07846766728240677
0.066,-0.0103534501957139,-0.01714409236643496,0.01714409236643496,0.07374121099403864,0.07850554822882842
0.0665,-0.0341045183034339,-0.038892828081648304,0.038892828081648304,0.0740135383571686,0.07862819802037567
0.067,-0.0797452440137911,-0.08154270028588602,0.08154270028588602,0.07427929723626055,0.07905982530267781
0.0675,-0.1061627494824639,-0.10790255818244217,0.10790255818244217,0.07453852450569912,0.07931654353165159
0.068,-0.0965564581212363,-0.10162080512021497,0.10162080512021497,0.07479125790887167,0.07931660178758658
0.0685,-0.0669476382351942,-0.07416420170989638,0.07416420170989638,0.07503753604391811,0.07953693749074556
0.069,-0.0377446639642023,-0.04236741251222316,0.04236741251222316,0.0752773983493999,0.07988790862074671
0.0695,-0.0124582836619691,-0.013027085846613707,0.013027085846613707,0.07551088508989219,0.08000403946690103
0.07,0.0080079693305122,0.007052791787186347,0.007052791787186347,0.07573803734150313,0.08000431705034468
0.0705,0.0057381035370957,0.00037807873934347924,0.00037807873934347924,0.075958896977324,0.08004010229320607
0.071,-0.0366503782810142,-0.0440302367919779,0.0440302367919779,0.07617350665281428,0.08005178230135339
0.0715,-0.0977532132727026,-0.1017880956225424,0.1017880956225424,0.07638190979112508,0.08005593618499236
0.072,-0.1179362706258237,-0.11804118591550865,0.11804118591550865,0.07658415056836448,0.08007341868403242
0.0725,-0.0555162505367286,-0.05651287340097584,0.05651287340097584,0.07678027389880795,0.0800761874092543
0.073,0.0611169168611191,0.05618043434882908,0.05618043434882908,0.0769703254200571,0.08007926772200863
0.0735,0.1509689525210266,0.1447144942668748,0.1447144942668748,0.0771543514781499,0.08008296860590568
0.074,0.1540053609397901,0.15004031834592904,0.15004031834592904,0.07733239911262543,0.08008470588089536
0.0745,0.0835158597071293,0.08155160988729597,0.08155160988729597,0.07750451604154651,0.08010363478566343
0.075,0.0086430414395561,0.006331516979525095,0.006331516979525095,0.07767075064648343,0.08011806671753997
0.0755,-0.007488217767203,-0.010897690920734074,0.010897690920734074,0.07783115195746212,0.08011810164297445
0.076,0.0440872360249492,0.04022219911031715,0.04022219911031715,0.07798576963788037,0.08013976622217521
0.0765,0.1184857772890658,0.11438434999247002,0.11438434999247002,0.07813465396939524,0.08019176935540503
0.077,0.1578974238365488,0.15345277396756546,0.15345277396756546,0.07827785583678544,0.08025653357423787
0.0775,0.1356789283311546,0.13156196532486095,0.13156196532486095,0.07841542671279152,0.08033336728208644
0.078,0.0684526729053206,0.06568066826505525,0.06568066826505525,0.07854741864293732,0.08043413325126518
0.0785,-0.0075795042315879,-0.00970311425237183,0.00970311425237183,0.07867388423033593,0.08055428439347212
0.079,-0.0687695536614693,-0.07280292072209424,0.07280292072209424,0.07879487662048329,0.08066112191171342
0.0795,-0.1132197053922119,-0.11972334361604195,0.11972334361604195,0.07891044948604307,0.08072489990701658
0.08,-0.1418103723873439,-0.14725011538297658,0.14725011538297658,0.07902065701162615,0.08074895259628882
0.0805,-0.1406463950630564,-0.14253750944913843,0.14253750944913843,0.07912555387856822,0.0807558498724475
0.081,-0.0948164266003807,-0.09650638214015715,0.09650638214015715,0.07922519524970888,0.08076145545150208
0.0815,-0.0163737115629241,-0.022103734518568084,0.022103734518568084,0.07931963675417569,0.08077787747618177
0.082,0.058558976387364,0.05074963668375651,0.05074963668375651,0.07940893447217696,0.08081248957521896
0.0825,0.1045941321980126,0.09981396192169416,0.09981396192169416,0.07949314491980691,0.08084217833444508
0.083,0.1247180483624245,0.12308021909665967,0.12308021909665967,0.07957232503386717,0.08084569365574971
0.0835,0.1283032409475125,0.1250053110851369,0.1250053110851369,0.07964653215670837,0.08085616575490255
0.084,0.1074663945463147,0.10042719268612652,0.10042719268612652,0.07971582402109562,0.08091103032871648
0.0845,0.0501790342596243,0.04287291437201132,0.04287291437201132,0.07978025873510158,0.08100576089072291
0.085,-0.0287563038321167,-0.033276432752029406,0.033276432752029406,0.07983989476703132,0.08113213761795329
0.0855,-0.0874018377016383,-0.09095552980441303,0.09095552980441303,0.07989479093038254,0.08129377536415062
0.086,-0.0942946642510651,-0.09947119506422811,0.09947119506422811,0.07994500636884551,0.08145639745057251
0.0865,-0.0594730167460587,-0.06541493987177567,0.06541493987177567,0.07999060054134664,0.08153426969926536
0.087,-0.0250056910273376,-0.030492170158280426,0.030492170158280426,0.08003163320713949,0.08153456992187508
0.0875,-0.0280671969244879,-0.03432069413131868,0.03432069413131868,0.08006816441094719,0.0816047969053831
0.088,-0.0683621030492966,-0.07563222425877156,0.07563222425877156,0.08010025446816028,0.0817574862989794
0.0885,-0.1038899321990189,-0.10969989349422646,0.10969989349422646,0.08012796395009357,0.08183629089712384
0.089,-0.0854975453560115,-0.08909701459960312,0.08909701459960312,0.08015135366930587,0.08183877865245556
0.0895,-0.0084848174840006,-0.013024884220025797,0.013024884220025797,0.08017048466498618,0.08184370024705648
0.09,0.0719591468235064,0.06414663212579105,0.06414663212579105,0.08018541818840998,0.08184842426664117
0.0905,0.0887528431504946,0.07980776004701923,0.07980776004701923,0.08019621568846921,0.08199916818298265
0.091,0.0299530880647903,0.023287635006923768,0.023287635006923768,0.08020293879727938,0.0824060419509946
0.0915,-0.0475523140065713,-0.051706852480196935,0.051706852480196935,0.08020564931586742,0.08276751863257997
0.092,-0.0731050618185321,-0.0772899167250703,0.0772899167250703,0.08020440919994355,0.08283805647384598
0.0925,-0.0277083328672,-0.03414594702947209,0.03414594702947209,0.08019928054576055,0.0828720508635127
0.093,0.0446576271445194,0.03590935473882603,0.03590935473882603,0.08019032557606348,0.0831314456392048
0.0935,0.0848486031368445,0.07612645865544085,0.07612645865544085,0.08017760662613307,0.08346350936700093
0.094,0.0731803538513888,0.06733210264575798,0.06733210264575798,0.08016118612992568,0.08365009085668199
0.0945,0.0365959781665516,0.03327102525062938,0.03327102525062938,0.08014112660631256,0.0837114951328908
0.095,0.0075412594122917,0.0026507561224616777,0.0026507561224616777,0.08011749064542155,0.08374489100485157
0.0955,-0.0116539130403283,-0.02057903235484668,0.02057903235484668,0.08009034089508343,0.08381269284333086
0.096,-0.0348686787363905,-0.04465145139419791,0.04465145139419791,0.08005974004738585,0.08394361209846375
0.0965,-0.053260281637068,-0.05943514835142543,0.05943514835142543,0.0800257508253369,0.08406712094961921
0.097,-0.03297185697223,-0.036189349491133734,0.036189349491133734,0.07998843596964088,0.08411509796943004
0.0975,0.0405302130941785,0.035927042467315415,0.035927042467315415,0.07994785822558796,0.08412367775922648
0.098,0.1311943012130775,0.1231907447054143,0.1231907447054143,0.07990408033005973,0.08413490386157299
0.0985,0.1799875478684365,0.17059191982654642,0.17059191982654642,0.0798571649986524,0.08420059246592476
0.099,0.1619478127329219,0.1544538544933623,0.1544538544933623,0.07980717491291923,0.08435990231962603
0.0995,0.1087903550536108,0.10464724052672379,0.10464724052672379,0.07975417270773379,0.08450803927915543
0.1,0.0727317575136384,0.0696518199465431,0.0696518199465431,0.0796982209587758,0.08454690469962477
0.1005,0.0708706130528031,0.0647107767668985,0.0647107767668985,0.07963938217014148,0.084548798111446
0.101,0.0729389816726028,0.06314656914184605,0.06314656914184605,0.07957771876208045,0.08458865334990882
0.1015,0.0469965549011074,0.038143705219598305,0.038143705219598305,0.07951329305886126,0.08464159311173974
0.102,0.0047335061156897,0.0005097744215127493,0.0005097744215127493,0.07944616727676794,0.08467774166861966
0.1025,-0.013908141495088,-0.01594470163871601,0.01594470163871601,0.0793764035122295,0.08469916049084746
0.103,0.003119787086689,-0.0020491316398211883,0.0020491316398211883,0.07930406373008464,0.08471318877569424
0.1035,0.0187575656764957,0.009366771909655118,0.009366771909655118,0.0792292097519835,0.08472335378660428
0.104,-0.0084640284666837,-0.017571136565783615,0.017571136565783615,0.07915190324492803,0.08473486926041648
0.1045,-0.0682917937336662,-0.07305305602202918,0.07305305602202918,0.07907220570995259,0.0847613941046624
0.105,-0.1029127302033225,-0.10513102651897031,0.10513102651897031,0.07899017847094579,0.08482464559442429
0.1055,-0.0708045356481496,-0.07540226601285448,0.07540226601285448,0.07890588266361467,0.0849142656540157
0.106,0.0042152812298841,-0.0039035422962691527,0.0039035422962691527,0.078819379224592,0.08496914899237233
0.1065,0.0553461584759445,0.047194026926231286,0.047194026926231286,0.07873072888068737,0.08497328219515511
0.107,0.037651869515062,0.03220300497412061,0.03220300497412061,0.07863999213828278,0.08498659210612516
0.1075,-0.0349020175749674,-0.03866113288437228,0.03866113288437228,0.07854722927287344,0.0850270557852939
0.108,-0.1085592073066794,-0.11331646729014325,0.11331646729014325,0.07845250031875407,0.08505373889259774
0.1085,-0.1363484333888188,-0.14324416604584594,0.14324416604584594,0.07835586505885123,0.08505613314447365
0.109,-0.1092367585963207,-0.11650690078961227,0.11650690078961227,0.0782573830147018,0.08506261099402472
0.1095,-0.0533027515734318,-0.05847622353244768,0.05847622353244768,0.07815711343657795,0.08510018579807703
0.11,-0.0066194791591002,-0.010514578439673086,0.010514578439673086,0.07805511529375861,0.08517940948922538
0.1105,0.0025822622872642,-0.0033657897624972954,0.0033657897624972954,0.07795144726494792,0.08529128665295622
0.111,-0.0277856177022488,-0.03598960291194159,0.03598960291194159,0.07784616772884106,0.08541687899786848
0.1115,-0.064981331543177,-0.07179532855501394,0.07179532855501394,0.07773933475483771,0.08554948827873167
0.112,-0.0596880644310739,-0.06361647310570989,0.06361647310570989,0.07763100609390329,0.08569135788346692
0.1125,0.0067889714764058,0.0029236747784910644,0.0029236747784910644,0.07752123916957808,0.08581597962866219
0.113,0.092384797826008,0.0859707594168865,0.0859707594168865,0.0774100910691341,0.0858686602369394
0.1135,0.1239843115553836,0.11554189085840254,0.11554189085840254,0.07729761853487939,0.08586877125763154
0.114,0.0638667405339904,0.055723457960306644,0.055723457960306644,0.07718387795560933,0.08590322294120382
0.1145,-0.0525041897160958,-0.05817864542890787,0.05817864542890787,0.07706892535820473,0.085948495201253
0.115,-0.1449379645133907,-0.14831103282333735,0.14831103282333735,0.07695281639937604,0.08595037942740591
0.1155,-0.1585564511266604,-0.16311404442172198,0.16311404442172198,0.07683560635755335,0.08598456196576583
0.116,-0.1083656910211529,-0.11699973918089271,0.11699973918089271,0.0767173501249216,0.08606292859684431
0.1165,-0.0517786682047918,-0.06210295768582933,0.06210295768582933,0.07659810219960078,0.08608758817127826
0.117,-0.0202557786349358,-0.02741328471081679,0.02741328471081679,0.07647791667797067,0.08609645770586029
0.1175,0.0090493105016588,0.005370910584347188,0.005370910584347188,0.07635684724714036,0.08617601971936457
0.118,0.0703711787635867,0.06570281951752531,0.06570281951752531,0.07623494717756231,0.08624303775262403
0.1185,0.1538634088973496,0.14548825183919273,0.14548825183919273,0.07611226931579117,0.08624445105165418
0.119,0.2079008006391518,0.19790215857514476,0.19790215857514476,0.07598886607738702,0.08628549853775319
0.1195,0.1935685405262686,0.1851946969807216,0.1851946969807216,0.07586478943996311,0.08634353964439709
0.12,0.1258496025950626,0.11964457435787598,0.11964457435787598,0.07574009093637796,0.08634358178139881
0.1205,0.057423922095767,0.05152670516570532,0.05152670516570532,0.07561482164807182,0.08650728028208975
0.121,0.0258404621114875,0.01858402934655167,0.01858402934655167,0.07548903219854776,0.08700466889137558
0.1215,0.0209052934386524,0.012215277447045588,0.012215277447045588,0.07536277274699815,0.08758347051796334
0.122,0.0041212531421977,-0.0051888668080809636,0.0051888668080809636,0.07523609298207708,0.08798933052323657
0.1225,-0.0434413323173958,-0.0524914949436405,0.0524914949436405,0.07510904211581941,0.08824851184100124
0.123,-0.0952690191374325,-0.10311013249778858,0.10311013249778858,0.07498166887770732,0.08845986311966335
0.1235,-0.1014867128367353,-0.10800862423359942,0.10800862423359942,0.07485402150888437,0.08861786933102474
0.124,-0.038388013377647,-0.045569246835456254,0.045569246835456254,0.07472614775651767,0.08864928705215049
0.1245,0.0622851871869298,0.05239466494355326,0.05239466494355326,0.07459809486830817,0.08869343960904137
0.125,0.136115616849211,0.12502190814868036,0.12502190814868036,0.07446990958714911,0.08903075541925962
0.1255,0.1410238745641577,0.13222422406562448,0.13222422406562448,0.07434163814593316,0.08951333106404118
0.126,0.0876794731016066,0.08114964736915439,0.08114964736915439,0.07421332626250811,0.08967664942951147
0.1265,0.0169552022899884,0.009155914965493561,0.009155914965493561,0.0740850191347815,0.08959898204509362
0.127,-0.0405426134504714,-0.0508548007528454,0.0508548007528454,0.07395676143597447,0.08973119419396494
0.1275,-0.0758048870643755,-0.0861798618913236,0.0861798618913236,0.07382859731002511,0.09001233301437155
0.128,-0.0860577111587037,-0.09499744700455433,0.09499744700455433,0.07370057036714177,0.08990743269614744
0.1285,-0.0662305695571867,-0.07477672039050198,0.07477672039050198,0.07357272367950665,0.08919123482103085
0.129,-0.0172765036693517,-0.026022344595076408,0.026022344595076408,0.07344509977712989,0.08832227624419055
0.1295,0.0453525062246787,0.03658740848602606,0.03658740848602606,0.07331774064385445,0.08782017101377448
0.13,0.0948959105502976,0.08519829958094607,0.08519829958094607,0.07319068771351203,0.08768923819964353
0.1305,0.1076491114962097,0.09680735610932578,0.09680735610932578,0.07306398186623027,0.08771780443914404
0.131,0.0807916420195629,0.07114445420357088,0.07114445420357088,0.07293766342489137,0.0878196408172064
0.1315,0.0356930796044642,0.028360156505992985,0.028360156505992985,0.0728117721517423,0.08795478923012223
0.132,-0.0036391855582302,-0.011647632747454423,0.011647632747454423,0.0726863472451565,0.08795684245347889
0.1325,-0.0335165302032147,-0.04456226865680035,0.04456226865680035,0.07256142733654745,0.08771682081798111
0.133,-0.0633458731357282,-0.07472790840196382,0.07472790840196382,0.07243705048743376,0.08750478045934401
0.1335,-0.0896337308646459,-0.09797729677679501,0.09797729677679501,0.07231325418665605,0.08755570434486143
0.134,-0.0920787764278547,-0.0990520455143844,0.0990520455143844,0.07219007534774513,0.08765359631848407
0.1345,-0.0583077606716845,-0.06763381886936384,0.06763381886936384,0.07206755030644157,0.08765073643463736
0.135,-0.000936251895668,-0.012216062991803847,0.012216062991803847,0.071945714818366,0.0876888030130706
0.1355,0.0537432307195699,0.04397432951823098,0.04397432951823098,0.07182460405684007,0.08774942284224804
0.136,0.0846281910253971,0.0772665447897435,0.0772665447897435,0.0717042526108579,0.08764479034545743
0.1365,0.0810515177610283,0.07342503806085682,0.07342503806085682,0.07158469448320745,0.0873518439443477
0.137,0.0423360764577844,0.032258882300527876,0.032258882300527876,0.07146596308874177,0.08711990191413752
0.1375,-0.0167560178911428,-0.02803257194879808,0.02803257194879808,0.07134809125279948,0.0871456833057226
0.138,-0.0648571725111611,-0.07395252631098673,0.07395252631098673,0.07123111120977414,0.08718834287082257
0.1385,-0.0721020368492792,-0.07791522599415006,0.07791522599415006,0.07111505460183187,0.08708249672554422
0.139,-0.0387448761406647,-0.045079434869075924,0.045079434869075924,0.07099995247777659,0.08706395650400026
0.1395,-0.0016952613717396,-0.012693441438540027,0.012693441438540027,0.07088583529206215,0.08705237865328376
0.14,0.001769148778156,-0.011282875583881241,0.011282875583881241,0.0707727329039508,0.08683260021174191
0.1405,-0.0185252245277447,-0.026860266836764443,0.026860266836764443,0.07066067457681692,0.08666716648213403
0.141,-0.0104082453583389,-0.013652361230492013,0.013652361230492013,0.07054968897759524,0.08669396074597899
0.1415,0.0556941656681812,0.05008100908633008,0.05008100908633008,0.07043980417637234,0.08672861995141899
0.142,0.1410851183064378,0.12908400448634744,0.12908400448634744,0.07033104764612036,0.0867890438763742
0.1425,0.1782575808587202,0.16529114005333556,0.16529114005333556,0.07022344626257133,0.08689009045481082
0.143,0.1482151369527309,0.14068204292839298,0.14068204292839298,0.07011702630423068,0.08689053443934316
0.1435,0.0958601778371827,0.09235985067259161,0.09235985067259161,0.07001181345252841,0.08683978940370965
0.144,0.0682599631898306,0.06271732235741519,0.06271732235741519,0.06990783279210652,0.08685793843129391
0.1445,0.0591544803558896,0.04891414285110461,0.04891414285110461,0.06980510881124143,0.08688627508122841
0.145,0.026652253718866,0.014783778182815892,0.014783778182815892,0.06970366540240035,0.08686258847654124
0.1455,-0.0434737494839416,-0.052302738977400384,0.052302738977400384,0.06960352586293093,0.0868215497049512
0.146,-0.1089521729321956,-0.11376755252397314,0.11376755252397314,0.06950471289588293,0.08680496708308158
0.1465,-0.113894126694681,-0.11851100436618203,0.11851100436618203,0.06940724861096115,0.08680806147630918
0.147,-0.0544243676730212,-0.06270142658782762,0.06270142658782762,0.06931115452560858,0.08680939854297487
0.1475,0.0119742742099536,0.0009969873457958515,0.0009969873457958515,0.06921645156621864,0.08687032299731529
0.148,0.026478812512634,0.016884872711577327,0.016884872711577327,0.06912316006947555,0.08703304960882019
0.1485,-0.0114169603703592,-0.017858917999268545,0.017858917999268545,0.06903129978382198,0.08718820493937897
0.149,-0.0506893820221132,-0.05595691913984452,0.05595691913984452,0.0689408898710527,0.08725405633832646
0.1495,-0.0483289982132924,-0.05501959179471942,0.05501959179471942,0.06885194890803328,0.08725240883260942
0.15,-0.01318114867176,-0.022015385681481467,0.022015385681481467,0.06876449488854271,0.08714045351760763
0.1505,0.0094057839657098,-0.00039886585180236994,0.00039886585180236994,0.06867854522523802,0.08684515269518436
0.151,-0.0093354309953191,-0.01816935793295621,0.01816935793295621,0.06859411675173999,0.08651160941461297
0.1515,-0.0492383276656762,-0.055992073741918016,0.055992073741918016,0.06851122572483771,0.0864033480483456
0.152,-0.0637556502433049,-0.06931802428707712,0.06931802428707712,0.0684298878268106,0.08639191128796457
0.1525,-0.0310138575760524,-0.03779433442496681,0.03779433442496681,0.06835011816786558,0.08615377923308233
0.153,0.0236458953946123,0.013931256490415295,0.013931256490415295,0.06827193128868764,0.08588456446308741
0.1535,0.057097332699905,0.045999887448524235,0.045999887448524235,0.06819534116310107,0.08586296990247061
0.154,0.0553715361063159,0.04695675665934887,0.04695675665934887,0.06812036120083964,0.0858433381966141
0.1545,0.0435567800411458,0.03891734958221595,0.03891734958221595,0.0680470042504228,0.08566290297436999
0.155,0.0454735254794368,0.039941638565365103,0.039941638565365103,0.06797528260213562,0.08550082562843334
0.1555,0.0444360462700726,0.03391788523236826,0.03391788523236826,0.0679052079911098,0.08542757977079499
0.156,0.0025749799408707,-0.009824224516053963,0.009824224516053963,0.06783679160050313,0.08538331896615717
0.1565,-0.0803033238872408,-0.0888759971591386,0.0888759971591386,0.06777004406477427,0.08533381910793035
0.157,-0.1478761067136226,-0.15306202728849413,0.15306202728849413,0.06770497547305016,0.08534310612361447
0.1575,-0.1394898907646493,-0.14643362876644495,0.14643362876644495,0.06764159537258277,0.08566874586878774
0.158,-0.051535411502858,-0.06189272826341102,0.06189272826341102,0.06757991277229242,0.08648334229064805
0.1585,0.0610747470352979,0.05027638573686112,0.05027638573686112,0.06751993614639422,0.0874109057943329
0.159,0.1354710458349922,0.12619011618956683,0.12619011618956683,0.06746167343810508,0.08786377926838504
0.1595,0.1455571505267423,0.13702178304914422,0.13702178304914422,0.06740513206342835,0.08788539175885246
0.16,0.1064400823216366,0.09807246364649556,0.09807246364649556,0.06735031891501345,0.08800556404648427
0.1605,0.0486672559420439,0.04035609204818023,0.04035609204818023,0.06729724036608799,0.08832567709880516
0.161,-0.008438014755272,-0.018085193767660226,0.018085193767660226,0.06724590227445999,0.0884938192595666
0.1615,-0.0613348788932213,-0.0729985834425803,0.0729985834425803,0.06719630998658777,0.08835431694642122
0.162,-0.1048111954829529,-0.11578062164509564,0.11578062164509564,0.06714846834171534,0.08801595302990553
0.1625,-0.1195061162980335,-0.12726945320430202,0.12726945320430202,0.06710238167607116,0.08772347837994329
0.163,-0.0888725030117605,-0.09613862783020061,0.09613862783020061,0.06705805382712787,0.08775693968286626
0.1635,-0.0274567682322912,-0.03854212707617289,0.03854212707617289,0.06701548813792073,0.08791379981259673
0.164,0.0240068019167636,0.010593827297798664,0.010593827297798664,0.06697468746142275,0.0877359877266995
0.1645,0.0396605927037654,0.029123555006079955,0.029123555006079955,0.06693565416497452,0.08744857709319026
0.165,0.0331145573464009,0.025739068651965076,0.025739068651965076,0.06689839013476649,0.08746696147270111
0.1655,0.0336216608427156,0.02460922174788243,0.02460922174788243,0.06686289678037195,0.0874843766666958
0.166,0.0508290412446677,0.03843079987356172,0.03843079987356172,0.06682917503932839,0.08725840076809006
0.1665,0.0745234772321031,0.06216441897729462,0.06216441897729462,0.06679722538176498,0.08715848565622984
0.167,0.0982258715587837,0.08824685692166452,0.08824685692166452,0.06676704781507381,0.08728579918085205
0.1675,0.126656217665477,0.11727493633505585,0.11727493633505585,0.06673864188862223,0.08734059883604077
0.168,0.1606259571328772,0.14985405814192493,0.14985405814192493,0.06671200669850375,0.08732174932952863
0.1685,0.1851284807838414,0.17362946809243102,0.17362946809243102,0.06668714089232476,0.08735849179827634
0.169,0.1768662217872698,0.16587496685642306,0.16587496685642306,0.06666404267402472,0.08730832776844993
0.1695,0.1235781065911683,0.11268674214850194,0.11268674214850194,0.06664270980872714,0.08704017484652965
0.17,0.0383868406009214,0.026790200783870913,0.026790200783870913,0.06662313962761963,0.08667638170512565
0.1705,-0.0426446423954532,-0.05416456837704063,0.05416456837704063,0.06660532903286101,0.08640730287636211
0.171,-0.0806440136401321,-0.09086582027407074,0.09086582027407074,0.06658927450251387,0.08628802603685098
0.1715,-0.0602984946069943,-0.07018053838053183,0.07018053838053183,0.06657497209550148,0.08625198303591804
0.172,-0.0018746056924489,-0.013628222760450281,0.013628222760450281,0.0665624174565873,0.08625279005123769
0.1725,0.0557878989682172,0.04241933290117389,0.04241933290117389,0.066551605821376,0.08630049725739501
0.173,0.0879376121726279,0.0758998392259791,0.0758998392259791,0.06654253202133457,0.08634566270702734
0.1735,0.0968114910579242,0.08748818619380601,0.08748818619380601,0.06653519048883211,0.08634442955744807
0.174,0.0909086219592119,0.08180310343829611,0.08180310343829611,0.06652957526219673,0.08644416405714171
0.1745,0.0612934600776523,0.04928640213518887,0.04928640213518887,0.06652567999078823,0.08671194243609615
0.175,-0.0084738230454004,-0.022718101164935778,0.022718101164935778,0.06652349794008502,0.08685738758108268
0.1755,-0.107768762534799,-0.12042728964209246,0.12042728964209246,0.06652302199678356,0.0867537877666254
0.176,-0.1877246516475661,-0.19693405824650537,0.19693405824650537,0.06652424467390913,0.0867315404264608
0.1765,-0.1989448961752751,-0.2074776633854579,0.2074776633854579,0.06652715811593622,0.0868787942255532
0.177,-0.1415934277107144,-0.15316774005620712,0.15316774005620712,0.06653175410391715,0.08689313686879088
0.1775,-0.068669504354928,-0.08288817454104352,0.08288817454104352,0.06653802406061785,0.0868283533506216
0.178,-0.0345594549398937,-0.04759643214525618,0.04759643214525618,0.06654595905565962,0.08699083297509351
0.1785,-0.0454654118726095,-0.05535495609175668,0.05535495609175668,0.06655554981066661,0.08725137833779581
0.179,-0.0648074611107109,-0.07365743691141835,0.07365743691141835,0.06656678670441828,0.08733092185693356
0.1795,-0.0600737835174091,-0.07077130561516691,0.07077130561516691,0.06657965977800705,0.08731467808213528
0.18,-0.0335130241969245,-0.046434690535789074,0.046434690535789074,0.06659415874000067,0.08735696520003132
0.1805,-0.0079573066535507,-0.02127432643910371,0.02127432643910371,0.06661027297160953,0.08743459581799691
0.181,0.005305245854742,-0.0062236735484752295,0.0062236735484752295,0.06662799153185835,0.08751472376092548
0.1815,0.0152626592543687,0.006233696915014915,0.006233696915014915,0.06664730316276242,0.08762008194205288
0.182,0.0293038559825216,0.020565920463267506,0.020565920463267506,0.06666819629450779,0.08778520000575997
0.1825,0.0330254031533606,0.02109477275327295,0.02109477275327295,0.06669065905063516,0.0879885308496648
0.183,0.004962940526009,-0.009927078879853002,0.009927078879853002,0.06671467925322692,0.08812430505616166
0.1835,-0.0446839949519023,-0.05749823876867506,0.05749823876867506,0.06674024442809633,0.08814182419716385
0.184,-0.0643957254014297,-0.07223449197024057,0.07223449197024057,0.06676734180997802,0.08814261580552346
0.1845,-0.0105011698176462,-0.0177483066999512,0.0177483066999512,0.06679595834771873,0.08818795985221554
0.185,0.0935451805299723,0.08137656541508766,0.08137656541508766,0.06682608070946673,0.08820200615415924
0.1855,0.1662433146846765,0.15092103889399489,0.15092103889399489,0.0668576952878589,0.08822355404092826
0.186,0.1459901521555106,0.13361684989782663,0.13361684989782663,0.06689078820520367,0.08835172000729674
0.1865,0.0506108801814866,0.04258327373114526,0.04258327373114526,0.0669253453186587,0.08843206100504819
0.187,-0.0441253143415601,-0.05220839765724977,0.05220839765724977,0.06696135222540173,0.08843227979905151
0.1875,-0.0727240905857526,-0.08443713568583017,0.08443713568583017,0.06699879426779358,0.0886831545367437
0.188,-0.022346236385747,-0.03631976600598435,0.03631976600598435,0.06703765653853189,0.08903863404951223
0.1885,0.0753081626724489,0.06317522610182802,0.06317522610182802,0.06707792388579469,0.08902710621660531
0.189,0.1726818903956848,0.16418769421897408,0.16418769421897408,0.06711958091837274,0.0890260524185905
0.1895,0.2232826351259433,0.2153576640048498,0.2153576640048498,0.06716261201078955,0.08952671341982822
0.19,0.1903159421105686,0.17867747812791807,0.17867747812791807,0.0672070013084079,0.09005124520022154
0.1905,0.0691580592091511,0.054526571350197,0.054526571350197,0.06725273273252214,0.0901810608622314
0.191,-0.0858369567389748,-0.09816420229009809,0.09816420229009809,0.06729978998543544,0.09016711123762702
0.1915,-0.1767764737606623,-0.18447554439345762,0.18447554439345762,0.0673481565555218,0.09019038712486312
0.192,-0.135347602147015,-0.1425799791668627,0.1425799791668627,0.06739781572227253,0.09018729949045035
0.1925,0.0092657817857304,-0.002149572306316981,0.002149572306316981,0.06744875056132751,0.09011390681187884
0.193,0.1466762929363198,0.13228965620218325,0.13228965620218325,0.06750094394949159,0.08998624406575355
0.1935,0.1798847296895624,0.16726254570287083,0.16726254570287083,0.0675543785697366,0.08990215531316158
0.194,0.1055083145013127,0.09635452045618345,0.09635452045618345,0.06760903691618987,0.08992727305368502
0.1945,0.0035771835967925,-0.004712518998016769,0.004712518998016769,0.0676649012991099,0.0900064384262152
0.195,-0.0434324452873444,-0.053512748083144615,0.053512748083144615,0.0677219538498504,0.09008687825633784
0.1955,-0.0187410953821149,-0.030576743747363782,0.030576743747363782,0.06778017652581368,0.09017299930905821
0.196,0.0304595483349091,0.018235526209775928,0.018235526209775928,0.0678395511153948,0.09028431335795091
0.1965,0.0490424460488398,0.03741297430560145,0.03741297430560145,0.06790005924291748,0.0903693935839208
0.197,0.0254054921738115,0.014889765842105968,0.014889765842105968,0.06796168237356288,0.09031130862622518
0.1975,-0.0061734325359901,-0.01570555460838855,0.01570555460838855,0.06802440181829242,0.09017213058085062
0.198,-0.0074534622273201,-0.017215426822220693,0.017215426822220693,0.06808819873876513,0.09013859758178261
0.1985,0.023141865053433,0.011795238340968675,0.011795238340968675,0.06815305415225056,0.090103880230515
0.199,0.0516671240763354,0.03893706361188599,0.03893706361188599,0.0682189489365373,0.0898831892933036
0.1995,0.0461554073901424,0.034002269639243354,0.034002269639243354,0.06828586383483784,0.08968146458100405
0.2,0.0083399501522923,-0.0016727698286107054,0.0016727698286107054,0.06835377946068959,0.0896820487568804
0.2005,-0.0325403138964886,-0.04166484891913067,0.04166484891913067,0.06842267630285218,0.08972516529941398
0.201,-0.0534411928872444,-0.06456679566767749,0.06456679566767749,0.0684925347302007,0.08972662105802374
0.2015,-0.0587334106659197,-0.07208088859848097,0.07208088859848097,0.06856333499661457,0.08972286902562793
0.202,-0.0661724967721992,-0.07854526569381971,0.07854526569381971,0.06863505724586157,0.08963242425644491
0.2025,-0.080150978481667,-0.08999970278752363,0.08999970278752363,0.06870768151647634,0.08942496315715102
0.203,-0.0882215633178419,-0.09834363797954632,0.09834363797954632,0.06878118774663286,0.08923778200714737
0.2035,-0.0800778369835272,-0.09280046851149953,0.09280046851149953,0.06885555577901002,0.08922726242152136
0.204,-0.0586246541414211,-0.07173868183048313,0.07173868183048313,0.06893076536564985,0.08942639126512192
0.2045,-0.0332350617212291,-0.04406745057213664,0.04406745057213664,0.06900679617280779,0.08961912305894369
0.205,-0.0133559783137492,-0.02360024601121488,0.02360024601121488,0.06908362778579465,0.089553599976509
0.2055,-0.00866840143614,-0.021276724650148827,0.021276724650148827,0.06916123971380947,0.08931121912107949
0.206,-0.0224918519013043,-0.03641979483797204,0.03641979483797204,0.0692396113947634,0.08911245875505061
0.2065,-0.0408225480808711,-0.05288185789019394,0.05288185789019394,0.06931872220009348,0.08902235983620785
0.207,-0.0387375413548145,-0.04898635786292216,0.04898635786292216,0.06939855143956629,0.08902065074598772
0.2075,-0.0053753011777056,-0.016858007312658026,0.016858007312658026,0.06947907836607009,0.08902537471167495
0.208,0.0429108784613713,0.029097748237180823,0.029097748237180823,0.06956028218039514,0.08893136368824789
0.2085,0.0805860480947126,0.06661564482236909,0.06661564482236909,0.06964214203600086,0.08876312711463917
0.209,0.099885929951855,0.08757416465629304,0.08757416465629304,0.06972463704376876,0.08864052329729269
0.2095,0.1126195787441398,0.10121871608931964,0.10121871608931964,0.06980774627674005,0.08861373630055444
0.21,0.1265960290854992,0.11457346660215419,0.11457346660215419,0.0698914487748366,0.08862805361691459
0.2105,0.1281038032674938,0.1150364565445511,0.1150364565445511,0.06997572354956379,0.08861771333988011
0.211,0.0934231002175337,0.07966319654302344,0.07966319654302344,0.07006054958869411,0.08860067016018427
0.2115,0.0189260010748654,0.004947572768284114,0.004947572768284114,0.07014590586093027,0.0886146581511718
0.212,-0.0623113143190171,-0.07568614676308066,0.07568614676308066,0.07023177132054668,0.08861389782256882
0.2125,-0.0996427151588906,-0.11167741033660916,0.11167741033660916,0.07031812491200841,0.08860611319870208
0.213,-0.0687680380252247,-0.08028680424226181,0.08028680424226181,0.07040494557456647,0.08866985479654689
0.2135,-0.0010828990431028,-0.01426855856319443,0.01426855856319443,0.07049221224682867,0.08869982915345713
0.214,0.035493016219938,0.020069613902796456,0.020069613902796456,0.07057990387130483,0.0885801576054759
0.2145,-0.0046183665843731,-0.01966322458376987,0.01966322458376987,0.07066799939892544,0.08850555894133139
0.215,-0.0988811683033854,-0.1111283666958605,0.1111283666958605,0.07075647779353271,0.08855785303922466
0.2155,-0.1717466412032789,-0.18288270466067552,0.18288270466067552,0.07084531803634299,0.08851922158808974
0.216,-0.1593466460746409,-0.17278077231768574,0.17278077231768574,0.07093449913037914,0.08849264297550281
0.2165,-0.0610910797829061,-0.076424668038606,0.076424668038606,0.0710240001048717,0.08866124679534823
0.217,0.0669111148754814,0.05307171544495182,0.05307171544495182,0.07111380001962789,0.08874927625886848
0.2175,0.1587956456185366,0.14673179570125056,0.14673179570125056,0.07120387796936717,0.08868725725096477
0.218,0.1797783292584247,0.16631317114316405,0.16631317114316405,0.07129421308802292,0.0886876908333842
0.2185,0.1400902303465681,0.12486053114514817,0.12486053114514817,0.07138478455300958,0.08867476346264598
0.219,0.0852512092571369,0.07168234459352965,0.07168234459352965,0.07147557158945476,0.08864607553835775
0.2195,0.0640636074382756,0.05287888061630908,0.05287888061630908,0.07156655347439628,0.08868318702430283
0.22,0.0877443505489608,0.07536813728643856,0.07536813728643856,0.07165770954094378,0.0886898651087499
0.2205,0.1199302456761429,0.10479153230778326,0.10479153230778326,0.07174901918240537,0.08870769219446169
0.221,0.1169915395558372,0.10185973841650092,0.10185973841650092,0.0718404618563793,0.08877302329712819
0.2215,0.0764768085137856,0.06351724824371073,0.06351724824371073,0.07193201708881089,0.08878571098846767
0.222,0.0385952076578399,0.026864970978622407,0.026864970978622407,0.07202366447801505,0.08875356680225716
0.2225,0.0427643152001688,0.030731808098069885,0.030731808098069885,0.07211538369866453,0.08876976978266202
0.223,0.0874326187168296,0.07435631720511691,0.07435631720511691,0.07220715450574458,0.0889449489606403
0.2235,0.1302067893048612,0.11587352537163118,0.11587352537163118,0.0722989567384739,0.08916228219835905
0.224,0.1263011255666625,0.11183823905630656,0.11183823905630656,0.07239077032419243,0.08910727184591968
0.2245,0.0699224209005841,0.057316627082178384,0.057316627082178384,0.07248257528221601,0.08886589046935255
0.225,-0.0018523026345793,-0.012652426696513244,0.012652426696513244,0.07257435172765818,0.08878601573297948
0.2255,-0.0464168351785283,-0.05805606540658556,0.05805606540658556,0.07266607987521939,0.08888172430533446
0.226,-0.0529212944805428,-0.0669291003311239,0.0669291003311239,0.07275774004294368,0.08898457390639111
0.2265,-0.0408827637404861,-0.05532020247692904,0.05532020247692904,0.07284931265594329,0.08907442472008172
0.227,-0.0301938586520327,-0.042590220455229845,0.042590220455229845,0.07294077825009139,0.08922565509726058
0.2275,-0.0236343129754879,-0.034471471480586324,0.034471471480586324,0.07303211747568275,0.08939541123247044
0.228,-0.0178444018747545,-0.029345564432351236,0.029345564432351236,0.07312331110106265,0.08944231580624416
0.2285,-0.0182273869929942,-0.031236130760387747,0.031236130760387747,0.07321434001622383,0.08946293795890395
0.229,-0.0338381656678414,-0.047412350637894125,0.047412350637894125,0.07330518523637136,0.08968339208158568
0.2295,-0.0604154324914436,-0.07323445109300956,0.07323445109300956,0.07339582790545512,0.08996134026198574
0.23,-0.0758386429045434,-0.08721241695155989,0.08721241695155989,0.07348624929966946,0.08999524276632978
0.2305,-0.0575954672300506,-0.06827799399226903,0.06827799399226903,0.07357643083091946,0.08987247097316396
0.231,-0.0068098910750295,-0.018740417944872148,0.018740417944872148,0.07366635405025328,0.08985287893707986
0.2315,0.0474101506145345,0.03363146440040022,0.03363146440040022,0.0737560006512598,0.08991063729441047
0.232,0.0720636065120565,0.058648860613766216,0.058648860613766216,0.07384535247343083,0.08993154475831555
0.2325,0.0586579616167035,0.04763551246030749,0.04763551246030749,0.07393439150548736,0.08997545333289704
0.233,0.0244067478403921,0.014270351786751612,0.014270351786751612,0.07402309988866872,0.09004399571293242
0.2335,-0.0112171868481243,-0.02347342785307507,0.02347342785307507,0.07411145991998377,0.08997674920794052
0.234,-0.0422446754538648,-0.056541284679668395,0.056541284679668395,0.07419945405542318,0.08976013360948808
0.2345,-0.0690122336871091,-0.08212849099401674,0.08212849099401674,0.07428706491313121,0.08963388453668193
0.235,-0.0873271152533645,-0.09765187654011005,0.09765187654011005,0.07437427527653612,0.08973631322746281
0.2355,-0.0932996365796584,-0.10353656074005527,0.10353656074005527,0.07446106809743713,0.08989962474274796
0.236,-0.0930187092641583,-0.1064700122483807,0.1064700122483807,0.0745474264990469,0.089955831101053
0.2365,-0.0948964315080836,-0.1102131370562548,0.1102131370562548,0.07463333377898766,0.08994148745311686
0.237,-0.0906668582076358,-0.10337684391234561,0.10337684391234561,0.0747187734122396,0.08991026788711907
0.2375,-0.0577765588426234,-0.0672474953435892,0.0672474953435892,0.07480372905404012,0.0898858035639823
0.238,0.0077683317801658,-0.0030875887446904643,0.0030875887446904643,0.07488818454273248,0.08988629391363301
0.2385,0.0693060582264735,0.05439592995214481,0.05439592995214481,0.07497212390256301,0.08980563140547698
0.239,0.0778327839296512,0.06237032817631815,0.06237032817631815,0.07505553134642522,0.08965800196213376
0.2395,0.0249517495203237,0.012725886123011974,0.012725886123011974,0.0751383912785499,0.08964936415610592
0.24,-0.0434358257175262,-0.05420872959949935,0.05420872959949935,0.07522068829713993,0.08964101572671743
0.2405,-0.0690980416588843,-0.08210597487667333,0.08210597487667333,0.07530240719694814,0.08939532048320568
0.241,-0.0312716712489436,-0.046071457986954716,0.046071457986954716,0.07538353297179694,0.08915888021563917
0.2415,0.0412341028149162,0.027633244013143127,0.027633244013143127,0.07546405081703789,0.08913762245642042
0.242,0.0950743319068629,0.08278389087051506,0.08278389087051506,0.07554394613194951,0.08916630901739146
0.2425,0.0896918111775772,0.07601047996237714,0.07601047996237714,0.07562320452207165,0.08916038414563394
0.243,0.0267023104200424,0.011040298923491978,0.011040298923491978,0.07570181180147428,0.08917866959988811
0.2435,-0.0447040523712862,-0.05950596905955616,0.05950596905955616,0.07577975399495895,0.08916767798307502
0.244,-0.0585697619119949,-0.07077987148533921,0.07077987148533921,0.07585701734019071,0.0889421476643801
0.2445,0.0139399291881886,0.0019074220212924285,0.0019074220212924285,0.07593358828975848,0.08850447744530365
0.245,0.1339685827617809,0.11894416119114284,0.11894416119114284,0.07600945351316164,0.08816185365215781
0.2455,0.2250847869326396,0.20772923132513532,0.20772923132513532,0.07608459989872049,0.08804209962331147
0.246,0.2408921820195149,0.22477978008826305,0.22477978008826305,0.0761590145554082,0.08801262311288989
0.2465,0.2018597189233666,0.18875642764740352,0.18875642764740352,0.07623268481460198,0.08814179236453834
0.247,0.1633425707104853,0.15112504131341958,0.15112504131341958,0.07630559823175113,0.08843901372556881
0.2475,0.1511783963612809,0.1366520051046421,0.1366520051046421,0.07637774258796032,0.08859080984558934
0.248,0.1354992028744105,0.11827802336233109,0.11827802336233109,0.07644910589148617,0.08856024922103173
0.2485,0.070035239794162,0.05276992554476305,0.05276992554476305,0.07651967637914654,0.08861150268642254
0.249,-0.0475633830889149,-0.06257049955088007,0.06257049955088007,0.0765894425176413,0.08878717403775614
0.2495,-0.1596727883834718,-0.17313171408115316,0.17313171408115316,0.07665839300478425,0.08895851135572608
0.25,-0.1931449625062393,-0.2076585789473933,0.2076585789473933,0.07672651677064557,0.08897951305310067
0.2505,-0.1199506262029211,-0.13661221704181287,0.13661221704181287,0.07679380297860451,0.08880531732104482
0.251,0.0204992628999241,0.0035300813112587384,0.0035300813112587384,0.076860241026312,0.08861809251972942
0.2515,0.1504989654269666,0.13527571043912306,0.13527571043912306,0.07692582054656315,0.08858798253798045
0.252,0.2039112933792267,0.18943425855706192,0.18943425855706192,0.07699053140807981,0.08865999430689518
0.2525,0.1605594317696474,0.1442659180606975,0.1442659180606975,0.07705436371620361,0.08868246254221372
0.253,0.052062988517083,0.034308085786095135,0.034308085786095135,0.07711730781349992,0.08860444302125998
0.2535,-0.0585309400750982,-0.07447784628484981,0.07447784628484981,0.07717935428027345,0.08851322356340897
0.254,-0.1172994953602293,-0.1305863241847282,0.1305863241847282,0.07724049393499624,0.08848537708453207
0.2545,-0.1188572939186042,-0.13316076134923874,0.13316076134923874,0.077300717834649,0.088489774562705
0.255,-0.1072533444611261,-0.12539161273566152,0.12539161273566152,0.07736001727497703,0.08848008330224767
0.2555,-0.1261589438073665,-0.14528605203644288,0.14528605203644288,0.07741838379066177,0.08843841690975758
0.256,-0.1649775639952079,-0.18050251646978582,0.18050251646978582,0.07747580915540918,0.08834700339779547
0.2565,-0.165428080860546,-0.17790950556096322,0.17790950556096322,0.07753228538195647,0.08832165635630532
0.257,-0.0887324228706284,-0.1027924814733139,0.1027924814733139,0.07758780472199882,0.08859673229880802
0.2575,0.0321541313601665,0.014711309695603247,0.014711309695603247,0.07764235966603798,0.08907911094132867
0.258,0.1165648095941,0.09842450372227092,0.09842450372227092,0.07769594294315506,0.08931452759729366
0.2585,0.1096678602663546,0.09348608411323064,0.09348608411323064,0.07774854752070973,0.08925223090111678
0.259,0.0291321519042405,0.014834765942091314,0.014834765942091314,0.07780016660396857,0.08943549819471948
0.2595,-0.0548494144194018,-0.06879246491967027,0.06879246491967027,0.07785079363566501,0.09006972562143226
0.26,-0.0802749843617629,-0.09525676219610778,0.09525676219610778,0.07790042229549327,0.09067086769439003
0.2605,-0.0386317442816874,-0.055025100778768106,0.055025100778768106,0.07794904649953913,0.09090142835040836
0.261,0.0305282378073733,0.01389048714378309,0.01389048714378309,0.07799666039964961,0.09090188796579336
0.2615,0.0819883296288186,0.0667296911831825,0.0667296911831825,0.07804325838274419,0.0908362224432351
0.262,0.0993795057389544,0.08550730397373578,0.08550730397373578,0.07808883507006971,0.09077693890929796
0.2625,0.0940974906622415,0.0799666401613959,0.0799666401613959,0.07813338531640138,0.09076673519831127
0.263,0.0823007726340724,0.06695116678337389,0.06695116678337389,0.07817690420919192,0.090786353157974
0.2635,0.0702991701075188,0.05470323529369778,0.05470323529369778,0.07821938706767102,0.09080641342458404
0.264,0.058575284502926,0.043974766900157655,0.043974766900157655,0.07826082944189713,0.09077523110357208
0.2645,0.0506842625513243,0.036754868135417694,0.036754868135417694,0.07830122711176359,0.0907694029945641
0.265,0.053533361136799,0.0391584829954873,0.0391584829954873,0.07834057608596115,0.0909546424469049
0.2655,0.0705338811524765,0.05571107721729861,0.05571107721729861,0.07837887260089878,0.0911453730061488
0.266,0.0959225951154075,0.08171803266630137,0.08171803266630137,0.07841611311958455,0.09114595001384748
0.2665,0.1145918549315259,0.10123129618212752,0.10123129618212752,0.07845229433046824,0.09127738501166709
0.267,0.1081208995242606,0.09438316298832372,0.09438316298832372,0.07848741314624728,0.0916114304584733
0.2675,0.0670508243859854,0.05229486955023488,0.05229486955023488,0.07852146670263743,0.09164301470922241
0.268,0.0044757516885303,-0.010055165126068522,0.010055165126068522,0.07855445235710982,0.09134864097436109
0.2685,-0.0435391880551736,-0.05675240010086721,0.05675240010086721,0.07858636768759586,0.09123871751927091
0.269,-0.041339670575247,-0.05409002871022038,0.05409002871022038,0.07861721049116134,0.09138695406178714
0.2695,0.0144618764029728,0.0010463357086491903,0.0010463357086491903,0.07864697878265133,0.09147486150574632
0.27,0.0862920946101576,0.07242960420013002,0.07242960420013002,0.07867567079330688,0.0914497889889174
0.2705,0.1205463376268313,0.1067355018652143,0.1067355018652143,0.07870328496935511,0.09153683410224037
0.271,0.0854609661055898,0.07177732876537836,0.07177732876537836,0.0787298199705732,0.09170173512983404
0.2715,-0.005579942305912,-0.018902858522779356,0.018902858522779356,0.07875527466882756,0.0916657958305052
0.272,-0.1016313019585115,-0.1145509572073049,0.1145509572073049,0.07877964814658886,0.09151542911619653
0.2725,-0.1495946045207633,-0.16254566244356944,0.16254566244356944,0.07880293969542368,0.09149933369777057
0.273,-0.1308774892436424,-0.14396145024469917,0.14396145024469917,0.07882514881446374,0.09153421674439212
0.2735,-0.0699185385754786,-0.0831342137667422,0.0831342137667422,0.0788462752088533,0.09153222729058093
0.274,-0.0114763475698724,-0.025316973921811335,0.025316973921811335,0.07886631878817563,0.09155266098168768
0.2745,0.0129036579025359,-0.0012614480829358024,0.0012614480829358024,0.0788852796648597,0.09157984418774359
0.275,0.0055839536332743,-0.007471578386413935,0.007471578386413935,0.07890315815256813,0.0915958237693867
0.2755,-0.004909322888354,-0.016823236322761316,0.016823236322761316,0.0789199547645675,0.09161047885611738
0.276,0.0058758990543612,-0.006963916696054583,0.006963916696054583,0.07893567021208205,0.09161664128788008
0.2765,0.0359688068763631,0.02121817076437091,0.02121817076437091,0.07895030540263172,0.09161582716429167
0.277,0.0646236322310817,0.04979588655772249,0.04979588655772249,0.07896386143835486,0.0915836595609607
0.2775,0.0757092677491567,0.0627548636433064,0.0627548636433064,0.0789763396143161,0.09153317676109511
0.278,0.0682721312883324,0.05629967361857522,0.05629967361857522,0.07898774141679953,0.09152123226252253
0.2785,0.0490645463643356,0.035479444566592036,0.035479444566592036,0.07899806852158699,0.09152844615432945
0.279,0.0248360817970821,0.009083942268883835,0.009083942268883835,0.07900732279222132,0.09152238097001601
0.2795,0.004534315962657,-0.0107856898385289,0.0107856898385289,0.07901550627825421,0.09151662251635741
0.28,-0.000657070436907,-0.013427724173877935,0.013427724173877935,0.07902262121347817,0.09151307407858031
0.2805,0.0083056065535437,-0.0037630504144699007,0.0037630504144699007,0.07902867001414199,0.0915047300773017
0.281,0.0046579708477262,-0.010057434484333359,0.010057434484333359,0.07903365527714899,0.09150035877889252
0.2815,-0.0478563977977707,-0.06484627903000356,0.06484627903000356,0.07903757977823665,0.09150349487332118
0.282,-0.1520084535074217,-0.16771120028523762,0.16771120028523762,0.07904044647013667,0.09141853294225429
0.2825,-0.2545935999677662,-0.26796549751264476,0.26796549751264476,0.07904225848071364,0.09121705416880993
0.283,-0.2797816156735655,-0.29361649962914343,0.29361649962914343,0.0790430191110809,0.0912058397348205
0.2835,-0.191908263185846,-0.207761847671129,0.207761847671129,0.07904273183369169,0.09157431585574245
0.284,-0.0283253633797376,-0.044208573143939056,0.044208573143939056,0.07904140029040457,0.09194114257502112
0.2845,0.1243470286548782,0.10961171142384521,0.10961171142384521,0.07903902829052226,0.09193223312182133
0.285,0.187576479392127,0.17178037573279573,0.17178037573279573,0.07903561980880341,0.09173175155280582
0.2855,0.1424737865742114,0.12451203391902982,0.12451203391902982,0.07903117898344748,0.09167517450675018
0.286,0.0447012796260389,0.027721233481270584,0.027721233481270584,0.07902571011405302,0.09174013969326056
0.2865,-0.0140602941104143,-0.027830358500444956,0.027830358500444956,0.07901921765954983,0.09175398982999981
0.287,0.0182174641251366,0.0043467539389239265,0.0043467539389239265,0.07901170623610565,0.09170533038312213
0.2875,0.1041592342311886,0.08641790574797566,0.08641790574797566,0.07900318061500787,0.09160801098515936
0.288,0.1511858894768437,0.13143863745292914,0.13143863745292914,0.07899364572052113,0.09146722562642254
0.2885,0.1033491505603554,0.08561582483211946,0.08561582483211946,0.07898310662772118,0.09137721124727838
0.289,-0.0031933986529509,-0.018726668153169396,0.018726668153169396,0.07897156856030538,0.09136777035034925
0.2895,-0.0742689880988893,-0.08997207102486698,0.08997207102486698,0.07895903688838034,0.0913790569076587
0.29,-0.0418129051688985,-0.058644790961481084,0.058644790961481084,0.07894551712622692,0.09137555598094692
0.2905,0.0787017534723743,0.061076784137089085,0.061076784137089085,0.07893101493004309,0.09137755972695442
0.291,0.2011320801675654,0.18273511112194352,0.18273511112194352,0.07891553609566479,0.09147849629880295
0.2915,0.2375725560342076,0.218619116875439,0.218619116875439,0.07889908655626533,0.0916735588294749
0.292,0.165999988982735,0.1478061084328055,0.1478061084328055,0.07888167238003345,0.09179034441711537
0.2925,0.0419004334578169,0.025625492374192857,0.025625492374192857,0.07886329976783045,0.09174107727809298
0.293,-0.0517504690065806,-0.06744202875940807,0.06744202875940807,0.07884397505082723,0.09159349775075573
0.2935,-0.0695284401453489,-0.08770869453334659,0.08770869453334659,0.07882370468812179,0.09138984587562922
0.294,-0.0276266012454571,-0.04846069714840087,0.04846069714840087,0.07880249526433858,0.09110227543472721
0.2945,0.0271601779939487,0.007828629138667921,0.007828629138667921,0.0787803534872105,0.09080129748692116
0.295,0.0621468367775791,0.046631828133803926,0.046631828133803926,0.07875728618514502,0.09071426944942534
0.2955,0.069090785507709,0.05355484052519049,0.05355484052519049,0.07873330030477504,0.09089007441145636
0.296,0.0467782383114198,0.027307259130729615,0.027307259130729615,0.07870840290849568,0.09099991020173728
0.2965,-0.0006613092751485,-0.021526109531006157,0.021526109531006157,0.07868260117198764,0.09091228050980614
0.297,-0.0463346915768593,-0.0641691597130467,0.0641691597130467,0.07865590238172794,0.0909693852940213
0.2975,-0.0467767826776975,-0.0624449149530064,0.0624449149530064,0.07862831393248824,0.09124628152072331
0.298,0.0173827546003165,0.00021589282935269988,0.00021589282935269988,0.07859984332482133,0.0914198066073298
0.2985,0.11244237954276,0.09350826494754198,0.09350826494754198,0.07857049816253578,0.09140341515213882
0.299,0.1712968428657613,0.1529021528247178,0.1529021528247178,0.07854028615015898,0.09132348905422229
0.2995,0.1444452899832336,0.1269875582825758,0.1269875582825758,0.07850921509038841,0.09125162742101839
0.3,0.039417939995277,0.021503191251054127,0.021503191251054127,0.07847729288153107,0.09122733641368473
0.3005,-0.0792983898918431,-0.09755687474751162,0.09755687474751162,0.07844452751493097,0.09122177846746479
0.301,-0.1309718252621787,-0.14789702659165183,0.14789702659165183,0.07841092707238466,0.09108312427013823
0.3015,-0.0762063921193681,-0.09181154075879115,0.09181154075879115,0.07837649972354498,0.09074350804673036
0.302,0.0492327112178279,0.03251397181694678,0.03251397181694678,0.07834125372331285,0.0904479518612013
0.3025,0.1568348631275631,0.13777621603285706,0.13777621603285706,0.0783051974092177,0.0904474306016785
0.303,0.1738456000273169,0.1547318405702223,0.1547318405702223,0.07826833919878627,0.09063949284354329
0.3035,0.1003051168619759,0.08388889781649977,0.08388889781649977,0.07823068758690077,0.0907905939388954
0.304,0.000665790747543,-0.013678474424410489,0.013678474424410489,0.07819225114314597,0.09081403222242186
0.3045,-0.0600617631111406,-0.07539036011481166,0.07539036011481166,0.07815303850914644,0.09075868212070953
0.305,-0.0700796000520694,-0.08796119503002588,0.08796119503002588,0.07811305839589404,0.0907035809235232
0.3055,-0.0654400109135541,-0.08417663157841919,0.08417663157841919,0.07807231958106645,0.09068005527328042
0.306,-0.0809162759001192,-0.09758814215806716,0.09758814215806716,0.07803083090633732,0.09067849031004958
0.3065,-0.112173596120654,-0.1263724268528333,0.1263724268528333,0.07798860127467858,0.09067827143150034
0.307,-0.1247259806878276,-0.1394463684959372,0.1394463684959372,0.07794563964765533,0.0906991911811831
0.3075,-0.0929710571084048,-0.11036858289764066,0.11036858289764066,0.07790195504271422,0.09081042078900357
0.308,-0.025064748031235,-0.04281093103091232,0.04281093103091232,0.07785755653046562,0.09098836564771963
0.3085,0.0448314622157074,0.03004222582586262,0.03004222582586262,0.07781245323196084,0.09109503227473251
0.309,0.0781045739092893,0.06492411857787637,0.06492411857787637,0.07776665431596494,0.09107166100773194
0.3095,0.0510223285255809,0.03522738503205009,0.03522738503205009,0.07772016899622634,0.09101538913756144
0.31,-0.0253518584298162,-0.04407981844513893,0.04407981844513893,0.07767300652874426,0.09101294956647572
0.3105,-0.0948413039903735,-0.11190439613263926,0.11190439613263926,0.07762517620903468,0.09101284351697886
0.311,-0.0846771783792903,-0.09725158466742048,0.09725158466742048,0.0775766873693958,0.09099917739902177
0.3115,0.028368874456096,0.016835547977688145,0.016835547977688145,0.07752754937617343,0.09104821248051496
0.312,0.1746246684796449,0.15900594143496902,0.15900594143496902,0.07747777162702729,0.09110083595056849
0.3125,0.2335074549870799,0.21418322128312786,0.21418322128312786,0.07742736354819851,0.09107283153985604
0.313,0.1394187407295864,0.1217124956639814,0.1217124956639814,0.07737633459177924,0.0910547338422916
0.3135,-0.050539979559566,-0.06363050314827345,0.06363050314827345,0.07732469423298496,0.09109134845187505
0.314,-0.2012975560279964,-0.21269435681641818,0.21269435681641818,0.07727245196743061,0.09104820370191907
0.3145,-0.2165175159489604,-0.23057391755650541,0.23057391755650541,0.07721961730841143,0.09079574429722384
0.315,-0.1136671550951314,-0.13071712564966367,0.13071712564966367,0.07716619978418998,0.09039323472919475
0.3155,0.0082628489453666,-0.008984393126622608,0.008984393126622608,0.07711220893529136,0.09010894349125932
0.316,0.0646543926099611,0.048917382392178715,0.048917382392178715,0.07705765431180796,0.09007791861010009
0.3165,0.0494255692351755,0.03513092512223695,0.03513092512223695,0.07700254547071653,0.09001368094755853
0.317,0.0187796821731593,0.005728676095935251,0.005728676095935251,0.07694689197320974,0.08976297607678042
0.3175,0.0252552206252877,0.01212114445948978,0.01212114445948978,0.07689070338204458,0.08964941347233955
0.318,0.0687511895023393,0.0525689307339563,0.0525689307339563,0.07683398925891004,0.08967772565517901
0.3185,0.1072406916398663,0.0880839558339876,0.0880839558339876,0.07677675916181605,0.08948472604174465
0.319,0.1110793983478625,0.09443123049608122,0.09443123049608122,0.07671902264250577,0.08921704972830995
0.3195,0.0971763630478695,0.08609902941228469,0.08609902941228469,0.0766607892438928,0.08918494519968952
0.32,0.0998520849044252,0.08838454096494108,0.08838454096494108,0.07660206849752524,0.08922907832567405
0.3205,0.1185399283608511,0.1002190600941919,0.1002190600941919,0.07654286992107795,0.08920321426759718
0.321,0.1190233869830671,0.09810041211133813,0.09810041211133813,0.07648320301587509,0.08919668843731526
0.3215,0.0863675204226383,0.07150804806675538,0.07150804806675538,0.07642307726444433,0.0892163254809147
0.322,0.0470918570232855,0.037068253623310274,0.037068253623310274,0.07636250212810464,0.08922868691163212
0.3225,0.0273702425892442,0.013058526728475822,0.013058526728475822,0.07630148704458947,0.08924348043022479
0.323,0.0154054766376406,-0.0052412303752048806,0.0052412303752048806,0.07624004142570734,0.08924716220021787
0.3235,-0.0138684427544902,-0.032886582694862304,0.032886582694862304,0.07617817465504131,0.08924423272098624
0.324,-0.0535558630269451,-0.0663383980690244,0.0663383980690244,0.07611589608568942,0.08924619927777785
0.3245,-0.0695075488088765,-0.08187218693796743,0.08187218693796743,0.07605321503804721,0.0892452016504665
0.325,-0.0445560528172298,-0.06251237873498398,0.06251237873498398,0.07599014079763408,0.08924221749329243
0.3255,0.0044765629446422,-0.01579173546252425,0.01579173546252425,0.07592668261296434,0.0892478205396839
0.326,0.0521626923056293,0.03579350710907462,0.03579350710907462,0.0758628496934643,0.08933987575637281
0.3265,0.0837064944129892,0.07051883061902467,0.07051883061902467,0.07579865120743631,0.08955227391843476
0.327,0.0858760174916112,0.07052682201534073,0.07052682201534073,0.07573409628007084,0.08971501396654469
0.3275,0.0434351021435661,0.024236370784573406,0.024236370784573406,0.07566919399150725,0.08970985712466377
0.328,-0.0384226520465279,-0.05809699670109365,0.05809699670109365,0.07560395337494423,0.08962034867903283
0.3285,-0.117031800912958,-0.13372246691566675,0.13372246691566675,0.07553838341480044,0.08951526934314337
0.329,-0.1360416102700283,-0.15018038101355613,0.15018038101355613,0.07547249304492597,0.08941901143289264
0.3295,-0.0765739474716042,-0.09199839376779186,0.09199839376779186,0.07540629114686502,0.08936670502957965
0.33,0.016993021281058,-0.0024274576703703366,0.0024274576703703366,0.07533978654817064,0.08935098951167234
0.3305,0.0717657823697676,0.05084450647340282,0.05084450647340282,0.07527298802077188,0.0893459752375691
0.331,0.0534817650427965,0.03589713793772492,0.03589713793772492,0.07520590427939423,0.08934113196706121
0.3315,-0.0039680481986488,-0.018342009039192322,0.018342009039192322,0.07513854398003407,0.08932778395218166
0.332,-0.0383383314510365,-0.05473634332906236,0.05473634332906236,0.07507091571848777,0.08929976689279881
0.3325,-0.0195514172663782,-0.039973484250767896,0.039973484250767896,0.07500302802893609,0.08927327509126783
0.333,0.0343303829309756,0.01419098981646056,0.01419098981646056,0.07493488938258414,0.08927405373624768
0.3335,0.085568870528206,0.06892855303602574,0.06892855303602574,0.07486650818635729,0.08927982014894432
0.334,0.1038674800799365,0.08781552478902484,0.08781552478902484,0.0747978927816532,0.08924111772272687
0.3345,0.0749141732958403,0.05573957459466921,0.05573957459466921,0.07472905144314981,0.08915522867538778
0.335,0.006901996486209,-0.01381795245103283,0.01381795245103283,0.07465999237766924,0.089052938501959
0.3355,-0.0638939568294299,-0.08223579527372185,0.08223579527372185,0.07459072372309744,0.0889512349973965
0.336,-0.089174814495174,-0.10551759026409012,0.10551759026409012,0.07452125354735942,0.08887972925455595
0.3365,-0.0466573889238444,-0.06489790742576122,0.06489790742576122,0.07445158984744951,0.08889708497628411
0.337,0.0360738521499183,0.01549118708275974,0.01549118708275974,0.07438174054851658,0.08895637508229527
0.3375,0.1017733545271786,0.082630725371411,0.082630725371411,0.07431171350300352,0.0888984600820751
0.338,0.1084629621233884,0.09153417095389337,0.09153417095389337,0.07424151648984074,0.0887901052119073
0.3385,0.056483933252248,0.03776746499141395,0.03776746499141395,0.07417115721369343,0.0889167279420499
0.339,-0.0149041617378529,-0.03651162915880811,0.03651162915880811,0.07410064330426153,0.08928330861345679
0.3395,-0.049537373435659,-0.0692772207053544,0.0692772207053544,0.07402998231563243,0.08964699016333887
0.34,-0.011021040312751,-0.026351816546340136,0.026351816546340136,0.07395918172568554,0.08987661392571795
0.3405,0.0793644737591987,0.06337912651622368,0.06337912651622368,0.07388824893554809,0.08985084078129543
0.341,0.1463496829744608,0.12440548702583698,0.12440548702583698,0.07381719126910143,0.08953850786865797
0.3415,0.1268178767195234,0.10238298284902943,0.10238298284902943,0.07374601597253712,0.08926965619292995
0.342,0.0406682332317493,0.021714334903250296,0.021714334903250296,0.07367473021396181,0.08931643196568216
0.3425,-0.0216366895122922,-0.034704452568922586,0.034704452568922586,0.07360334108305001,0.08945381403447679
0.343,0.0034561016609806,-0.011961047483237529,0.011961047483237529,0.07353185559074403,0.08936594484022228
0.3435,0.0795279406773208,0.05702415545560699,0.05702415545560699,0.07346028066900002,0.08910331872156256
0.344,0.1128414502900566,0.08845387647990074,0.08845387647990074,0.07338862317057937,0.08893360508115214
0.3445,0.0606625797985355,0.04122156270226869,0.04122156270226869,0.07331688986888417,0.08899138362609892
0.345,-0.0249905972295363,-0.03985307061662529,0.03985307061662529,0.07324508745783578,0.0891346869103361
0.3455,-0.063397499287666,-0.07887332879507052,0.07887332879507052,0.07317322255179513,0.08914150785006726
0.346,-0.0365320155728505,-0.055858368390332744,0.055858368390332744,0.07310130168552334,0.08901866917179581
0.3465,-0.0038989988803216,-0.02605972097054498,0.02605972097054498,0.07302933131418139,0.08891300108384084
0.347,-0.0309647804873388,-0.052420154412567595,0.052420154412567595,0.07295731781336726,0.08886784236349879
0.3475,-0.1118660865658567,-0.12983339921797676,0.12983339921797676,0.07288526747918904,0.08889427615608766
0.348,-0.170463318675944,-0.18582322294462478,0.18582322294462478,0.07281318652837243,0.08897870123859969
0.3485,-0.1391693266695698,-0.15555792365390725,0.15555792365390725,0.07274108109840094,0.08898654891248811
0.349,-0.0291033867737987,-0.04874720209429808,0.04874720209429808,0.07266895724768713,0.08885362286190888
0.3495,0.0837021931492124,0.06209746663767307,0.06209746663767307,0.07259682095577355,0.08871578874857856
0.35,0.1359304121721066,0.11555751337826357,0.11555751337826357,0.07252467812356206,0.08868458600644953
0.3505,0.1323747772179642,0.115473908464314,0.115473908464314,0.07245253457357033,0.08870129783537538
0.351,0.1240846460492597,0.1094845292730821,0.1094845292730821,0.07238039605021471,0.08868916929108864
0.3515,0.1387625843616296,0.12221757814969997,0.12221757814969997,0.07230826822011842,0.08866221350028113
0.352,0.1440023572494891,0.12313111228913587,0.12313111228913587,0.07223615667244432,0.08865470981333949
0.3525,0.0885511769356813,0.06669623071099891,0.06669623071099891,0.07216406691925159,0.08867326164934175
0.353,-0.0251490017305571,-0.04299889147255925,0.04299889147255925,0.07209200439587572,0.08869418649627457
0.3535,-0.1266790775899272,-0.14083504509308473,0.14083504509308473,0.07201997446133152,0.08868986505448283
0.354,-0.1435256575098167,-0.15898021284703814,0.15898021284703814,0.07194798239873867,0.08868751613873585
0.3545,-0.0721880140765036,-0.09158186727232256,0.09158186727232256,0.07187603341576987,0.08870370219888264
0.355,0.0239654256110413,0.00334542414596908,0.00334542414596908,0.0718041326451211,0.0886845698624905
0.3555,0.0808362310407575,0.06264909376470637,0.06264909376470637,0.0717322851450044,0.08861897295272766
0.356,0.0879075994491522,0.07215719191605424,0.07215719191605424,0.07166049589966296,0.08857491840811359
0.3565,0.0799896252164895,0.06408820595438884,0.06408820595438884,0.07158876981990875,0.08857300142580732
0.357,0.0880747305022897,0.07061701955671397,0.07061701955671397,0.07151711174368296,0.088564748198982
0.3575,0.1057996214246655,0.0875452108400662,0.0875452108400662,0.07144552643663926,0.08858645148446116
0.358,0.1003228082201678,0.0823877345127006,0.0823877345127006,0.07137401859274993,0.0886994591242947
0.3585,0.0496820671122741,0.03243431652483236,0.03243431652483236,0.07130259283493497,0.0887977711375187
0.359,-0.0307265858932943,-0.0474309361349764,0.0474309361349764,0.07123125371571418,0.08880209838465325
0.3595,-0.0955535394259707,-0.11227553598028887,0.11227553598028887,0.07116000571788228,0.0887721487847371
0.36,-0.1043640569975423,-0.12156835515279259,0.12156835515279259,0.07108885325520727,0.08869659016931736
0.3605,-0.0541255360249666,-0.07117470504232289,0.07117470504232289,0.07101780067315171,0.0886711638806588
0.361,0.0184962437532773,0.0022493591890640277,0.0022493591890640277,0.0709468522496174,0.08894291603245168
0.3615,0.0652493450507834,0.04844710857720623,0.04844710857720623,0.07087601219571314,0.08930771526404283
0.362,0.0616709436366584,0.04298559124937428,0.04298559124937428,0.07080528465654587,0.08930758644630371
0.3625,0.0255544334770648,0.0072542033892892925,0.0072542033892892925,0.07073467371203528,0.08924718479218144
0.363,0.0028625590452617,-0.011990445317098527,0.011990445317098527,0.07066418337775188,0.08985150595932144
0.3635,0.0237352105350838,0.01014250442098088,0.01014250442098088,0.07059381760577833,0.09089862550766652
0.364,0.065879349712378,0.048277247675343984,0.048277247675343984,0.07052358028559398,0.09153357787895393
0.3645,0.0725950461114169,0.05134547931121905,0.05134547931121905,0.07045347524498191,0.09163481486421189
0.365,0.0170118326296111,-0.0014051141776501783,0.0014051141776501783,0.07038350625095802,0.0916331790920486
0.3655,-0.0610743759111026,-0.07414506047898009,0.07414506047898009,0.07031367701072126,0.09163602799763586
0.366,-0.0950684348132588,-0.10859947931147032,0.10859947931147032,0.0702439911726241,0.09159000482593804
0.3665,-0.0610434836135616,-0.08008895463250884,0.08008895463250884,0.07017445232716214,0.09157074277648669
0.367,0.0061605872230287,-0.014940106581597362,0.014940106581597362,0.07010506400798171,0.09156448840415915
0.3675,0.0576703430478944,0.04073514434738889,0.04073514434738889,0.07003582969290427,0.09151095914887503
0.368,0.0709083565327592,0.057764202896167516,0.057764202896167516,0.06996675280496646,0.09150147717714988
0.3685,0.0481939477347961,0.03289754630273399,0.03289754630273399,0.06989783671347446,0.09157114875889978
0.369,0.0020158309702125,-0.01826780571488426,0.01826780571488426,0.06982908473507143,0.09158330214565163
0.3695,-0.0425608090380737,-0.06349827988927498,0.06349827988927498,0.06976050013481673,0.09154707141645888
0.37,-0.0454513300197948,-0.06135354530572595,0.06135354530572595,0.06969208612727534,0.09154968019822783
0.3705,0.0200585919768755,0.00776285453186135,0.00776285453186135,0.06962384587761583,0.091395054974039
0.371,0.1243911067535183,0.1082692622938218,0.1082692622938218,0.06955578250271519,0.09092451871665065
0.3715,0.1848525297040356,0.1624530909588591,0.1624530909588591,0.06948789907226886,0.0903753274106818
0.372,0.1376676313478315,0.11603079122268213,0.11603079122268213,0.06942019860990399,0.08998801766207218
0.3725,0.0079024076791391,-0.006959420835080478,0.006959420835080478,0.06935268409429388,0.08973575236856943
0.373,-0.110678137847416,-0.1231748048548114,0.1231748048548114,0.06928535846027215,0.08952863459322292
0.3735,-0.1472164940223386,-0.16506906294426882,0.16506906294426882,0.0692182245999447,0.08939901596103991
0.374,-0.1091180545225042,-0.13154387391731628,0.13154387391731628,0.06915128536379807,0.08954347790537857
0.3745,-0.0479013338934478,-0.06792423120346125,0.06792423120346125,0.06908454356180249,0.08990281709879883
0.375,0.0035325101070053,-0.012074691690121764,0.012074691690121764,0.06901800196450858,0.08995205446576475
0.3755,0.045430742709162,0.029567111825252387,0.029567111825252387,0.06895166330413642,0.08958024758275414
0.376,0.0817015039204338,0.06258937150379258,0.06258937150379258,0.06888553027565594,0.08937820056402437
0.3765,0.1004078615717893,0.08041020428673618,0.08041020428673618,0.06881960553785765,0.08952841037773718
0.377,0.0860654234158189,0.0676645903396883,0.0676645903396883,0.06875389171441267,0.08953022198861714
0.3775,0.0405618394959305,0.02260639011190598,0.02260639011190598,0.0686883913949209,0.0892177691392257
0.378,-0.0116500302702715,-0.030760789595497846,0.030760789595497846,0.06862310713594623,0.08898755687216839
0.3785,-0.0367103122300597,-0.055921051628760134,0.055921051628760134,0.06855804146203737,0.08898276296636123
0.379,-0.0146181736501677,-0.0326540135586127,0.0326540135586127,0.0684931968667332,0.08892213033454577
0.3795,0.0400407098785692,0.021934173494604713,0.021934173494604713,0.06842857581355123,0.08875756817109146
0.38,0.0794937940974757,0.0597743458114514,0.0597743458114514,0.06836418073695762,0.08867838482130329
0.3805,0.0562444142630377,0.035935722197723424,0.035935722197723424,0.06830001404331726,0.08861114724717371
0.381,-0.0340392805604673,-0.053127388788890645,0.053127388788890645,0.06823607811182213,0.08838758018239075
0.3815,-0.1401700399751106,-0.15854745261190958,0.15854745261190958,0.06817237529539621,0.08802789598998313
0.382,-0.1879211061022083,-0.20733833071592467,0.20733833071592467,0.06810890792157508,0.08768824532373254
0.3825,-0.1314698865646979,-0.15160545076920767,0.15160545076920767,0.06804567829335811,0.08756767077102216
0.383,0.0142127899983855,-0.004711766484066127,0.004711766484066127,0.0679826886900317,0.08760191683205938
0.3835,0.1792051977049567,0.16116252337125908,0.16116252337125908,0.06791994136796166,0.08756573200631959
0.384,0.2783713912629538,0.2583309424203608,0.2583309424203608,0.06785743856135361,0.08751527434227913
0.3845,0.2651551402291529,0.24269264702829546,0.24269264702829546,0.06779518248298017,0.0875272469655115
0.385,0.1660278406004417,0.14519278921641024,0.14519278921641024,0.06773317532487406,0.08747504117470607
0.3855,0.0611034161416961,0.04444683855113449,0.04444683855113449,0.06767141925898672,0.0873712526970712
0.386,0.0145843129905109,-0.0017762177128439402,0.0017762177128439402,0.06760991643781201,0.08733915397915183
0.3865,0.0182239849417103,-0.002810908572401287,0.002810908572401287,0.06754866899497576,0.0873516662550574
0.387,0.0133868056457626,-0.010697004078361314,0.010697004078361314,0.06748767904579117,0.08734040935667849
0.3875,-0.0292046021650768,-0.050662369388652685,0.050662369388652685,0.06742694868778117,0.08732663627878773
0.388,-0.068177629841431,-0.0853836975296063,0.0853836975296063,0.06736648000116777,0.08735332302650918
0.3885,-0.0404226691281174,-0.05691848449266704,0.05691848449266704,0.06730627504932918,0.08743189496649824
0.389,0.0580718976616614,0.03877014946378683,0.03877014946378683,0.06724633587922439,0.08754344985700847
0.3895,0.1527514996319493,0.13035472673793153,0.13035472673793153,0.06718666452178561,0.08763830687735874
0.39,0.1551067817461723,0.13226232333617544,0.13226232333617544,0.06712726299227857,0.08767065102363152
0.3905,0.0476828104173743,0.027822035923628554,0.027822035923628554,0.06706813329063063,0.08765528367648777
0.391,-0.093740595568537,-0.11033944121586534,0.11033944121586534,0.06700927740172685,0.08762777623577364
0.3915,-0.1642458164638564,-0.18180950335693408,0.18180950335693408,0.06695069729567414,0.08756318114573637
0.392,-0.1181608324765757,-0.13984511928475007,0.13984511928475007,0.06689239492803381,0.08744615966579826
0.3925,0.0030905493180908,-0.019677205444733253,0.019677205444733253,0.0668343722400229,0.08735768690940583
0.393,0.1180080335414434,0.09877307604707868,0.09877307604707868,0.06677663115868485,0.08735000501541233
0.3935,0.1654720604513659,0.14854710054794873,0.14854710054794873,0.06671917359703022,0.08735344758259374
0.394,0.1288100728982906,0.10941169921824662,0.10941169921824662,0.06666200145414837,0.08731954956360433
0.3945,0.0321752343841696,0.009970089361736621,0.009970089361736621,0.06660511661529123,0.0872916719993525
0.395,-0.0698356595629036,-0.09045775682127905,0.09045775682127905,0.06654852095193026,0.08729536227489555
0.3955,-0.1161561632792598,-0.13358027805450276,0.13358027805450276,0.06649221632178781,0.08729872751205903
0.396,-0.0804385286764699,-0.09822426235970474,0.09822426235970474,0.06643620456884428,0.08726984976377504
0.3965,0.004139352820758,-0.01651298570047957,0.01651298570047957,0.06638048752332253,0.08724109068011651
0.397,0.0709667131207417,0.049584466351262735,0.049584466351262735,0.0663250670016511,0.08724320765493826
0.3975,0.0761121133817352,0.05650998071543975,0.05650998071543975,0.06626994480640762,0.08714593218688757
0.398,0.0284567095905557,0.010148783626245144,0.010148783626245144,0.06621512272624411,0.08687211900235882
0.3985,-0.028344897037171,-0.04679199695183501,0.04679199695183501,0.06616060253579575,0.08663347998568775
0.399,-0.0558588926755506,-0.0749682673629371,0.0749682673629371,0.0661063859955747,0.08655381206647747
0.3995,-0.047172664667094,-0.06701261636313634,0.06701261636313634,0.06605247485185028,0.08658417765506823
0.4,-0.0225897560710158,-0.04274493343072027,0.04274493343072027,0.06599887083651695,0.08682751314253956
0.4005,-0.0043159367994337,-0.023763867666070353,0.023763867666070353,0.06594557566695122,0.08721616942451373
0.401,0.0022897207373918,-0.015985575695950556,0.015985575695950556,0.06589259104585891,0.08742368574109176
0.4015,0.0043205449874013,-0.013732010494188658,0.013732010494188658,0.0658399186611137,0.08743678477386915
0.402,0.0056845886154038,-0.013522691708014458,0.013522691708014458,0.0657875601855883,0.08745875741424394
0.4025,0.0020068992447293,-0.01830751624286013,0.01830751624286013,0.065735517276979,0.08748556146352968
0.403,-0.0095859961936895,-0.029228927368252063,0.029228927368252063,0.06568379157762448,0.08745440384070802
0.4035,-0.0216796890378838,-0.03950786178290938,0.03950786178290938,0.06563238471431956,0.08742206118238792
0.404,-0.0233804246035902,-0.04096249731545652,0.04096249731545652,0.06558129829812422,0.08744523459056167
0.4045,-0.0150631238851845,-0.034493845155918475,0.034493845155918475,0.06553053392416823,0.08749372004565362
0.405,-0.0085457283529187,-0.028840667387285482,0.028840667387285482,0.06548009317145156,0.08751528258346446
0.4055,-0.0086949889373509,-0.027394123671714836,0.027394123671714836,0.0654299776026405,0.08751494180097752
0.406,-0.002032705511164,-0.019582493974786286,0.019582493974786286,0.06538018876385941,0.08751484913316172
0.4065,0.0300029411925163,0.011324244437910608,0.011324244437910608,0.06533072818447809,0.08751754420928447
0.407,0.0905300609193156,0.07091817227233992,0.07091817227233992,0.06528159737689411,0.08750744716636075
0.4075,0.1615711386226993,0.14289829559091496,0.14289829559091496,0.06523279783630986,0.0872459854260057
0.408,0.2114543291738065,0.19366406783048076,0.19366406783048076,0.06518433104050363,0.08643590368319579
0.4085,0.2085911369828145,0.1902285513252462,0.1902285513252462,0.06513619844959398,0.08543882872029326
0.409,0.1422570746436971,0.12290174858888758,0.12290174858888758,0.06508840150579705,0.08497544283740473
0.4095,0.0387408740496347,0.019087878885827622,0.019087878885827622,0.06504094163317603,0.084983373807326
0.41,-0.0478285791458811,-0.0665574719651898,0.0665574719651898,0.06499382023738308,0.08484666844308032
0.4105,-0.07016149923124,-0.08710005288937508,0.08710005288937508,0.06494703870539377,0.0844990291146093
0.411,-0.0232180109085581,-0.03997228572384774,0.03997228572384774,0.06490059840523447,0.08432183077476287
0.4115,0.0490106330125975,0.029415619346885087,0.029415619346885087,0.06485450068570306,0.0843232230053764
0.412,0.0887171472299264,0.06697148899548208,0.06697148899548208,0.06480874687608353,0.08431448139821461
0.4125,0.0768423954999613,0.05753570446102406,0.05753570446102406,0.06476333828585507,0.08437536128548272
0.413,0.0472502777057918,0.031832711610853145,0.031832711610853145,0.06471827620439584,0.0844287281954189
0.4135,0.0408301243496453,0.024957109042624284,0.024957109042624284,0.06467356190068192,0.08427386402210484
0.414,0.0538160574190849,0.033815979156308816,0.033815979156308816,0.0646291966229817,0.08422666088768771
0.4145,0.0449778334853014,0.022984259901291923,0.022984259901291923,0.06458518159854598,0.08463837826262197
0.415,-0.009697260143142,-0.029079117387755052,0.029079117387755052,0.06454151803329404,0.08518829050543837
0.4155,-0.0832826174974229,-0.09916675609057764,0.09916675609057764,0.06449820711149544,0.08546441672452897
0.416,-0.1229036961586469,-0.1390682496634849,0.1390682496634849,0.06445524999544772,0.08543298148704441
0.4165,-0.1010067698450001,-0.12073684136384098,0.12073684136384098,0.06441264782514976,0.0850904091581658
0.417,-0.0355057041224347,-0.057153072732246485,0.057153072732246485,0.06437040171797048,0.08458611366355406
0.4175,0.0343173936801638,0.015006522872512348,0.015006522872512348,0.06432851276831297,0.08433017243151808
0.418,0.0778113335429153,0.06183678693455152,0.06183678693455152,0.06428698204727376,0.0843306608895223
0.4185,0.078869889148998,0.06251017754637678,0.06251017754637678,0.06424581060229753,0.08427795797757211
0.419,0.0321982071505307,0.011833114186290742,0.011833114186290742,0.06420499945682741,0.08420294104383207
0.4195,-0.046629434779652,-0.06928080595185317,0.06928080595185317,0.06416454960995067,0.08421002486849664
0.42,-0.1097719932945248,-0.12915567059407176,0.12915567059407176,0.06412446203604016,0.084210985061157
0.4205,-0.0991377594525525,-0.11367856248896988,0.11367856248896988,0.06408473768439127,0.0842257851668954
0.421,-0.0013487595340581,-0.01691575238628279,0.01691575238628279,0.06404537747885439,0.08430300975253596
0.4215,0.1225306062492017,0.10059057911450558,0.10059057911450558,0.064006382317463,0.08435329800606789
0.422,0.1838229340161725,0.15941500478030876,0.15941500478030876,0.06396775307205714,0.08434781759576303
0.4225,0.1517024285177377,0.13284567808184686,0.13284567808184686,0.0639294905879027,0.0843411689780083
0.423,0.0788333119391837,0.06528718305193963,0.06528718305193963,0.06389159568330655,0.08435469816911441
0.4235,0.0353306232011642,0.01875789179763255,0.01875789179763255,0.06385406914922793,0.08436365571102847
0.424,0.0345780163076994,0.011474959955686549,0.011474959955686549,0.06381691174888678,0.08428855208980708
0.4245,0.0378898160585818,0.01458939721367311,0.01458939721367311,0.06378012421736935,0.08420412736026046
0.425,0.0146786631767144,-0.0030151179657906153,0.0030151179657906153,0.06374370726123223,0.08438065466367572
0.4255,-0.027892673219808,-0.043174785600532964,0.043174785600532964,0.06370766155810488,0.08470863924863119
0.426,-0.0698589679422817,-0.08892348512189226,0.08892348512189226,0.06367198775629171,0.08470564689335301
0.4265,-0.1049226328485968,-0.1275572515910979,0.1275572515910979,0.06363668647437354,0.08444829161143774
0.427,-0.1319203926962999,-0.15301375713822177,0.15301375713822177,0.06360175830080894,0.0844639251098136
0.4275,-0.1380919752273964,-0.15575759924764748,0.15575759924764748,0.06356720379353546,0.08464936086652612
0.428,-0.1088442752314122,-0.12638260471396015,0.12638260471396015,0.06353302347957096,0.0845584574248264
0.4285,-0.0517602661194168,-0.07205845906459842,0.07205845906459842,0.06349921785461558,0.08432736227145962
0.429,0.001514464536203,-0.020009595418734254,0.020009595418734254,0.06346578738265483,0.0842662329686743
0.4295,0.0228208458977432,0.003030466883959141,0.003030466883959141,0.0634327324955649,0.08428609083039669
0.43,0.0137779752938776,-0.0047535768313411685,0.0047535768313411685,0.06340005359272109,0.08425027861275579
0.4305,0.002296907167662,-0.01762632229706175,0.01762632229706175,0.06336775104061058,0.08418966171933732
0.431,0.016617573581686,-0.004345867000364642,0.004345867000364642,0.06333582517245062,0.08411746330798824
0.4315,0.0632935815448546,0.04400050607894408,0.04400050607894408,0.06330427628781278,0.08400417726751591
0.432,0.1207346142828059,0.10255524638967811,0.10255524638967811,0.06327310465225419,0.08381691901490178
0.4325,0.1493334416255878,0.1289188470361456,0.1289188470361456,0.0632423104969562,0.08359237385800554
0.433,0.1215269277697477,0.09904371681637121,0.09904371681637121,0.06321189401837078,0.0836535549844443
0.4335,0.0549282839451409,0.03431201317093814,0.03431201317093814,0.06318185537787524,0.08436597231878012
0.434,0.0079178998006668,-0.009727918967955055,0.009727918967955055,0.06315219470143538,0.08534243662656939
0.4345,0.0278518655319095,0.0096419321078837,0.0096419321078837,0.06312291207927781,0.08580568956744415
0.435,0.1024847908854445,0.08131724003475539,0.08131724003475539,0.063094007565572,0.08582366136270099
0.4355,0.1687596500488629,0.14674284005402538,0.14674284005402538,0.06306548117812248,0.0858749316631061
0.436,0.1695502958335804,0.14938814168400485,0.14938814168400485,0.06303733289807173,0.08589065370217312
0.4365,0.1001894479057375,0.08127725819290049,0.08127725819290049,0.0630095626696141,0.08585426306878632
0.437,0.0063592909724631,-0.013224359464315771,0.013224359464315771,0.06298217039972136,0.08587273681268744
0.4375,-0.053812680001797,-0.07403772744087211,0.07403772744087211,0.06295515595788025,0.08562856902092247
0.438,-0.0482187395835589,-0.06821824717703631,0.06821824717703631,0.06292851917584313,0.08529182029874793
0.4385,0.0122914977724242,-0.007869337687045605,0.007869337687045605,0.06290225984739227,0.08546038958825013
0.439,0.083744572798736,0.06327314993973202,0.06327314993973202,0.06287637772811869,0.08564453832166924
0.4395,0.1192960698570417,0.09956793964850466,0.09956793964850466,0.06285087253521657,0.08515775243181653
0.44,0.0984369288035241,0.07917100063776833,0.07917100063776833,0.06282574394729386,0.08453170863067987
0.4405,0.033745210104614,0.013342001035567118,0.013342001035567118,0.06280099160419987,0.08433389735836859
0.441,-0.0412491780031502,-0.06206350708568463,0.06206350708568463,0.06277661510687067,0.08433360344735696
0.4415,-0.0880928344374944,-0.10721839718611381,0.10721839718611381,0.06275261401719284,0.08431359702957748
0.442,-0.0821416931519743,-0.10070641164367114,0.10070641164367114,0.06272898785788657,0.08430018461558905
0.4425,-0.0298035427448394,-0.05043007075770475,0.05043007075770475,0.06270573611240879,0.08430715103856125
0.443,0.0359656043144274,0.014539985500799268,0.014539985500799268,0.06268285822487704,0.08432752366942656
0.4435,0.0829055111262809,0.0637153272284092,0.0637153272284092,0.06266035360001498,0.08430524559892899
0.444,0.0981372991074698,0.08012763341248902,0.08012763341248902,0.06263822160312034,0.08421319087246718
0.4445,0.0829636823865657,0.06292211156766025,0.06292211156766025,0.06261646156005624,0.08411902063148773
0.445,0.0451079567473563,0.023582252186769213,0.023582252186769213,0.06259507275726672,0.08406681925471494
0.4455,0.0010606869989045,-0.01878386314125599,0.01878386314125599,0.06257405444181723,0.08403933952052145
0.446,-0.0277421488590256,-0.04565398649250342,0.04565398649250342,0.06255340582146074,0.08400210124278319
0.4465,-0.0312007864689077,-0.05002647774101372,0.05002647774101372,0.06253312606473059,0.08394694171839714
0.447,-0.0182548291681961,-0.039266025897147394,0.039266025897147394,0.06251321430106031,0.08390332643202839
0.4475,-0.0027892926488636,-0.023984269669911747,0.023984269669911747,0.06249366962093129,0.08388742837323386
0.448,0.0133894512295323,-0.005909949529908669,0.005909949529908669,0.06247449107604854,0.08388548260839324
0.4485,0.0356424241510053,0.017737909492466706,0.017737909492466706,0.06245567767954514,0.08388642842943958
0.449,0.0562993824044992,0.03777646058742136,0.03777646058742136,0.06243722840621543,0.08387907785480761
0.4495,0.0502881479068635,0.029830137184745975,0.029830137184745975,0.06241914219277732,0.08382770141421013
0.45,-0.000634628768637,-0.02242414191571818,0.02242414191571818,0.06240141793816353,0.08375230007341818
0.4505,-0.0791696181275168,-0.09977937750711373,0.09977937750711373,0.062384054503841685,0.08372273469842297
0.451,-0.1345536261338289,-0.15220726987207933,0.15220726987207933,0.062367050714163,0.08372665966975303
0.4515,-0.123732647204663,-0.14065076618566866,0.14065076618566866,0.06235040535673911,0.08371339380156217
0.452,-0.0553943377080169,-0.07554287470073165,0.07554287470073165,0.06233411718284678,0.08367655289831828
0.4525,0.0143711973019725,-0.008611766007062465,0.008611766007062465,0.06231818490786018,0.08363885523254448
0.453,0.0372480920256318,0.016116613884211716,0.016116613884211716,0.06230260721171054,0.08363259196744698
0.4535,0.0174665386539753,8.358286362164166e-05,8.358286362164166e-05,0.062287382739373315,0.0836157843915066
0.454,-0.0044604582492906,-0.02169376811048404,0.02169376811048404,0.062272510101382926,0.08349530806848608
0.4545,-0.0027801631170812,-0.023186626220069142,0.023186626220069142,0.06225798787437502,0.0833368799748075
0.455,0.0116497508050059,-0.010438095154515256,0.010438095154515256,0.06224381460165617,0.08327183270387566
0.4555,0.0160561282292281,-0.0044703482645055345,0.0044703482645055345,0.06222998879380072,0.08327529794017713
0.456,0.0070638497847836,-0.011574272415111674,0.011574272415111674,0.06221650892927419,0.0833022096697951
0.4565,0.0017190210521499,-0.01715172131882646,0.01715172131882646,0.0622033734550827,0.0833208944868788
0.457,0.0142427748164903,-0.0058568304706003785,0.0058568304706003785,0.06219058078744747,0.0833307421957135
0.4575,0.0391715434078004,0.018807043924667883,0.018807043924667883,0.062178129312503445,0.0835352088792362
0.458,0.0570294816468071,0.036898328081056614,0.036898328081056614,0.062166017387020725,0.08400670521186332
0.4585,0.0518214913403071,0.03135358706712249,0.03135358706712249,0.06215424333914746,0.08440651283144612
0.459,0.023101986651321,0.0028439751746255695,0.0028439751746255695,0.0621428054691726,0.08447985466777978
0.4595,-0.0146864135838367,-0.03362672037638495,0.03362672037638495,0.06213170205030684,0.08439155135802025
0.46,-0.0448345679896589,-0.0638377248452475,0.0638377248452475,0.062120931329479746,0.08436854809496001
0.4605,-0.0617056216247411,-0.08291814478678187,0.08291814478678187,0.062110491528151186,0.08437624963263206
0.461,-0.0669459269937812,-0.08881974635297896,0.08881974635297896,0.062100380843134864,0.0842975988296816
0.4615,-0.0532672137489358,-0.07278017399649854,0.07278017399649854,0.06209059744743174,0.0841899171090625
0.462,-0.0058730831184025,-0.024044987065725068,0.024044987065725068,0.06208113949107114,0.08415714760303791
0.4625,0.0733471808551017,0.053339790664439835,0.053339790664439835,0.062072005101957345,0.08415680248365352
0.463,0.1546571139956929,0.1330294445786685,0.1330294445786685,0.06206319238671943,0.08415641822415383
0.4635,0.2019932564040256,0.18128964748737214,0.18128964748737214,0.0620546994315623,0.08423724807162773
0.464,0.2009130394663558,0.18149273702331098,0.18149273702331098,0.06204652430311665,0.08437298754252819
0.4645,0.1645158676304089,0.1449071602938316,0.1449071602938316,0.062038665049285936,0.0844081069649006
0.465,0.1203491312345837,0.10016707573380183,0.10016707573380183,0.062031119700088434,0.08435479311322289
0.4655,0.0939927017025731,0.07369860774814971,0.07369860774814971,0.06202388626849284,0.08434659287553861
0.466,0.0967589437854767,0.07626767343896118,0.07626767343896118,0.062016962751246255,0.08430413401011275
0.4665,0.1205283041552601,0.10008736695016716,0.10008736695016716,0.06201034712969363,0.08414940692641132
0.467,0.1422899110213574,0.1228678969360334,0.1228678969360334,0.062004037370587864,0.08407042267144921
0.4675,0.135794625507171,0.11693522055035549,0.11693522055035549,0.06199803142688998,0.08410363874129753
0.468,0.0854016521393736,0.06499789151233737,0.06499789151233737,0.061992327238558874,0.08411789772004125
0.4685,0.0001113343629716,-0.02196599655907837,0.02196599655907837,0.06198692273333034,0.08413319403990957
0.469,-0.0806715590539282,-0.10138284867281205,0.10138284867281205,0.061981815827484944,0.08409459590602938
0.4695,-0.1070638551347856,-0.12473652822369725,0.12473652822369725,0.06197700442660484,0.08405754493339815
0.47,-0.061755614132103,-0.079299191093025,0.079299191093025,0.061972486426319355,0.08428004966170448
0.4705,0.0147072304001525,-0.0062277532407126295,0.0062277532407126295,0.06196825971303946,0.08457159463971187
0.471,0.0542606401952805,0.03121788940661764,0.03121788940661764,0.061964322164681014,0.08460920092061276
0.4715,0.0252635574592256,0.00450145851327852,0.00450145851327852,0.061960671651377155,0.08457535894223805
0.472,-0.0380732909225092,-0.0554183196356145,0.0554183196356145,0.061957306036179764,0.08470816923940781
0.4725,-0.0745916944759721,-0.09193973257291596,0.09193973257291596,0.061954223175750264,0.08492573391428478
0.473,-0.0587406762313755,-0.078912410504536,0.078912410504536,0.061951420921039654,0.08496706073804311
0.4735,-0.0181860261281508,-0.04008588339925982,0.04008588339925982,0.061948897117957674,0.08476960661539862
0.474,0.0045509607791694,-0.016438689523724945,0.016438689523724945,0.06194664960803099,0.08464603095780038
0.4745,-0.0037563567770198,-0.02274877285790819,0.02274877285790819,0.061944676229050206,0.08466633109947706
0.475,-0.0227902258396223,-0.04052536457113091,0.04052536457113091,0.061942974815705515,0.08463564809828948
0.4755,-0.02963638980154,-0.04790368109236356,0.04790368109236356,0.06194154320021082,0.0846890952402771
0.476,-0.0252006058966197,-0.04570756047045191,0.04570756047045191,0.06194037921291602,0.08482183833808346
0.4765,-0.0268041231554202,-0.048939344714542574,0.048939344714542574,0.06193948068290693,0.08475108753914971
0.477,-0.0383496688283479,-0.05881161960887306,0.05881161960887306,0.06193884543859246,0.0846011370284764
0.4775,-0.0381834799867747,-0.05517223665661579,0.05517223665661579,0.0619384713082784,0.08459301709428532
0.478,-0.0051392710952566,-0.021860574673885406,0.021860574673885406,0.0619383561207271,0.08464156580765576
0.4785,0.0484443999385666,0.027701509037557984,0.027701509037557984,0.06193849770570251,0.08461995501643886
0.479,0.0840863811086703,0.06069236737658075,0.06069236737658075,0.06193889389449965,0.08442736964347206
0.4795,0.0809701895449026,0.060550464740958224,0.060550464740958224,0.061939542520457865,0.0841617866849077
0.48,0.0583864836349233,0.04231694012085785,0.04231694012085785,0.061940441419456975,0.08406211007760983
0.4805,0.0443809023038743,0.027546077170063587,0.027546077170063587,0.06194158843039523,0.08408390382539856
0.481,0.0348092245599567,0.013468799159206894,0.013468799159206894,0.061942981395648224,0.08407243129167889
0.4815,0.0029551768593782,-0.020002409460478893,0.020002409460478893,0.06194461816150754,0.08403282367381375
0.482,-0.0530954073638693,-0.07322615913147132,0.07322615913147132,0.061946496578598194,0.08399057821352135
0.4825,-0.0934480544145156,-0.11084436482822384,0.11084436482822384,0.06194861450227335,0.08393258496018464
0.483,-0.0767019124447831,-0.09449178781503012,0.09449178781503012,0.061950969792985144,0.0838990672968655
0.4835,-0.0106175487674347,-0.030582038493480283,0.030582038493480283,0.06195356031663016,0.0840425422319929
0.484,0.0446137120560498,0.023190041918039216,0.023190041918039216,0.061956383944868,0.08439283014500916
0.4845,0.0273121355193488,0.0063594760102209935,0.0063594760102209935,0.061959438555411736,0.08464586628413533
0.485,-0.0659472496632709,-0.08532870053626695,0.08532870053626695,0.06196272203228878,0.08457953785940392
0.4855,-0.1678075660313263,-0.18669044863738177,0.18669044863738177,0.061966232266070814,0.0844051142286355
0.486,-0.1895656199407586,-0.209400836130063,0.209400836130063,0.06196996715407132,0.08435890874468428
0.4865,-0.0900456804556456,-0.11016093304848684,0.11016093304848684,0.06197392460050922,0.08436452865558271
0.487,0.0920522626475418,0.07276173506839367,0.07276173506839367,0.06197810251663731,0.08434290144724689
0.4875,0.2619534221621841,0.24215447661375877,0.24215447661375877,0.06198249882083441,0.08436016822263066
0.488,0.3294547049979679,0.3076410753081755,0.3076410753081755,0.061987111438660474,0.08438672684378334
0.4885,0.2684493821597101,0.24673223799317093,0.24673223799317093,0.06199193830287418,0.08438518805915687
0.489,0.1333423470960209,0.11472473915748929,0.11472473915748929,0.061996977353413044,0.0844246704159027
0.4895,0.0137386701300124,-0.0034721515156477256,0.0034721515156477256,0.06200222653733652,0.08446172881083733
0.49,-0.0362836848162709,-0.056565401959292175,0.056565401959292175,0.062007683808733095,0.08445004367264418
0.4905,-0.0268096721710246,-0.05025006991411913,0.05025006991411913,0.06201334712859287,0.08445113769421723
0.491,0.0029847506636925,-0.01893551034727404,0.01893551034727404,0.06201921446464761,0.08440135568045526
0.4915,0.0319874816313037,0.01381659196917432,0.01381659196917432,0.06202528379117992,0.08426759596360876
0.492,0.0619530426320213,0.044195321058922814,0.044195321058922814,0.06203155308880352,0.08419404331162032
0.4925,0.0909859027437298,0.07007091900934298,0.07007091900934298,0.06203802034421628,0.08422288504671394
0.493,0.1035647733204475,0.0806186573465216,0.0806186573465216,0.06204468354992772,0.0842647428657677
0.4935,0.0895729986339602,0.06821974635178374,0.06821974635178374,0.06205154070396253,0.08428464898567287
0.494,0.0597339238284967,0.04113777730664743,0.04113777730664743,0.06205858980954151,0.08429879121305267
0.4945,0.0338044840818164,0.015571383771284624,0.015571383771284624,0.06206582887474142,0.08429651811336197
0.495,0.0188323879331646,-0.0019437428778175322,0.0019437428778175322,0.06207325591213528,0.08425115860168089
0.4955,0.0070903788737704,-0.01604520552697656,0.01604520552697656,0.06208086893841447,0.08420771290351428
0.496,-0.0053958363185019,-0.027236003804117136,0.027236003804117136,0.062088665973994074,0.08421319718359983
0.4965,-0.0084605751914379,-0.026471646321118744,0.026471646321118744,0.06209664504260265,0.08411078610898423
0.497,0.0041414027118649,-0.013028557628626883,0.013028557628626883,0.062104804170857474,0.08383276679536866
0.4975,0.0107408052771082,-0.010457054361971703,0.010457054361971703,0.06211314138782628,0.08367393767411765
0.498,-0.0246345547058021,-0.048923533684905915,0.048923533684905915,0.06212165472457615,0.08370331007795517
0.4985,-0.1038293328823761,-0.12533896176518602,0.12533896176518602,0.06213034221371016,0.08364184137414428
0.499,-0.1732176685147046,-0.19014760284729793,0.19014760284729793,0.06213920188889233,0.08347663898555321
0.4995,-0.1680380607557755,-0.18547878740328913,0.18547878740328913,0.06214823178436111,0.08337582896788798
0.5,-0.0767196698079079,-0.09872392110457089,0.09872392110457089,0.06215742993443195,0.08334391473021001
0.5005000000000001,0.0476007448829537,0.024163761768346767,0.024163761768346767,0.06216679437298955,0.08334696651089148
0.501,0.135651266087234,0.11597079729328222,0.11597079729328222,0.062176323132970585,0.08341180062634314
0.5015000000000001,0.1528066407958557,0.1358738757748596,0.1358738757748596,0.062186014245838146,0.08351016777718673
0.502,0.10889233118214,0.08921983377937615,0.08921983377937615,0.06219586574104923,0.0835371210781124
0.5025000000000001,0.040545889450449,0.017324233388846304,0.017324233388846304,0.06220587564551674,0.08349295995174238
0.503,-0.0061071427594324,-0.02739449352363797,0.02739449352363797,0.062216041983067634,0.08351653799816099
0.5035000000000001,0.0043105101222021,-0.012390667471459522,0.012390667471459522,0.062226362773898945,0.08361935283776906
0.504,0.0664315102059998,0.04932656758868027,0.04932656758868027,0.062236836034033335,0.08366125696499237
0.5045000000000001,0.1256369005527814,0.10347367683479686,0.10347367683479686,0.06224745977477611,0.0836501072003955
0.505,0.1226643464022989,0.09880686978659815,0.09880686978659815,0.06225823200217512,0.08369356039837911
0.5055000000000001,0.0558592275340641,0.036366109710302796,0.036366109710302796,0.06226915071648521,0.08376117110593533
0.506,-0.013442905801528,-0.029227203326549156,0.029227203326549156,0.062280213911638724,0.08380008624507883
0.5065000000000001,-0.0246242066093011,-0.042552789977312315,0.042552789977312315,0.06229141957472361,0.08376642650701491
0.507,0.0228400896138338,0.0007696758776042627,0.0007696758776042627,0.062302765685470655,0.0835052197245924
0.5075000000000001,0.0789757931715059,0.05670852517407741,0.05670852517407741,0.06231425021575146,0.08304984286929179
0.508,0.0999369791741085,0.08073523090164945,0.08073523090164945,0.06232587112908855,0.08278296650377008
0.5085000000000001,0.0833358783806774,0.06574616812958604,0.06574616812958604,0.06233762638017907,0.08280740563767444
0.509,0.0544031088248209,0.03560799571988329,0.03560799571988329,0.06234951391443322,0.08264284176295562
0.5095000000000001,0.0331438465920076,0.012819391840703048,0.012819391840703048,0.06236153166752875,0.08207483326756035
0.51,0.0198964530551872,-0.0005791489967430646,0.0005791489967430646,0.06237367756498269,0.08160001541130894
0.5105000000000001,0.004862475221319,-0.014959000132841863,0.014959000132841863,0.06238594952174135,0.08156625339889166
0.511,-0.016672281991569,-0.03585854854231941,0.03585854854231941,0.062398345441789814,0.08173748937436065
0.5115000000000001,-0.0400131706247571,-0.05890336335066361,0.05890336335066361,0.062410863217781776,0.08182926839677875
0.512,-0.0589071033612458,-0.07815783787064687,0.07815783787064687,0.06242350073069042,0.08182994095331332
0.5125,-0.0733811661941674,-0.0934102967648076,0.0934102967648076,0.062436255849480975,0.08204579576049051
0.513,-0.08630699075521,-0.10653199314392017,0.10653199314392017,0.06244912643080559,0.0826030375211447
0.5135,-0.0933573375064581,-0.11292529242152344,0.11292529242152344,0.062462110318720857,0.08305328487772899
0.514,-0.0820930432821862,-0.10120469285412005,0.10120469285412005,0.062475205344428617,0.08318541092150793
0.5145,-0.0452745199898708,-0.06469953338541576,0.06469953338541576,0.062488409326040745,0.08317147960190792
0.515,0.0060327016462635,-0.013646960818740252,0.013646960818740252,0.06250172006836857,0.08297365903828782
0.5155,0.0458715250323266,0.02632356236050997,0.02632356236050997,0.06251513536273796,0.08276306273788368
0.516,0.0518353064724699,0.0319311607988852,0.0319311607988852,0.06252865298683097,0.0827559937602954
0.5165,0.0233401526468638,0.0028016592109729836,0.0028016592109729836,0.06254227070455506,0.08261020256937929
0.517,-0.014236789112262,-0.034285454473078535,0.034285454473078535,0.06255598626594092,0.082263979138116
0.5175,-0.0265849779305914,-0.0454280793856502,0.0454280793856502,0.06256979740706939,0.08213218398228828
0.518,-0.0012059227605117,-0.020045461628731085,0.020045461628731085,0.06258370185002851,0.08215024419220512
0.5185,0.0362112588481863,0.01613383494735464,0.01613383494735464,0.06259769730290086,0.08208459661648171
0.519,0.0431458199904937,0.02217799431344375,0.02217799431344375,0.06261178145978182,0.08214607540846079
0.5195,0.0029713227627548,-0.017978652612833674,0.017978652612833674,0.06262595200082881,0.08241552292198794
0.52,-0.0542084472690104,-0.07442998605619869,0.07442998605619869,0.06264020659234182,0.08256046268334374
0.5205,-0.0753076270111761,-0.09419073012768084,0.09419073012768084,0.06265454288687493,0.08246430960000614
0.521,-0.033203633523819,-0.05140620154141089,0.05140620154141089,0.06266895852337898,0.08240576475511244
0.5215,0.0431113492958254,0.02328105439010803,0.02328105439010803,0.06268345112737489,0.08246588351187926
0.522,0.090601375599121,0.068117759773609,0.068117759773609,0.06269801831115754,0.08247254531397835
0.5225,0.0735743846148122,0.0509595329493091,0.0509595329493091,0.06271265767402981,0.08256527570522126
0.523,0.0242065661832372,0.004721905530766313,0.004721905530766313,0.0627273668025666,0.08289396209279208
0.5235,0.0133180145183929,-0.003544277484049608,0.003544277484049608,0.0627421432709084,0.0831294792297739
0.524,0.075550996115968,0.057181007784186076,0.057181007784186076,0.06275698464108401,0.08311413912476068
0.5245,0.1677513158906485,0.14525908029447596,0.14525908029447596,0.0627718884633621,0.08309987692918099
0.525,0.2079827682435707,0.18405816952090204,0.18405816952090204,0.06278685227663067,0.0831286053588827
0.5255,0.1561946171480046,0.1356588773955288,0.1356588773955288,0.06280187360880403,0.08311644204741463
0.526,0.0514554886834787,0.03455065343989362,0.03455065343989362,0.06281694997725651,0.0831195129908141
0.5265,-0.0305817250885897,-0.04869978641033598,0.04869978641033598,0.0628320788892825,0.08312933881950002
0.527,-0.0472184076452317,-0.06945673754791162,0.06945673754791162,0.0628472578425826,0.08312871431876233
0.5275,-0.0115144801388696,-0.03482551052314723,0.03482551052314723,0.06286248432577582,0.08316630576710601
0.528,0.0386058095109712,0.018484273621774516,0.018484273621774516,0.0628777558189377,0.08322507553119264
0.5285,0.0747569264844883,0.057314279174970825,0.057314279174970825,0.06289306979416474,0.08327279230547466
0.529,0.084820248736635,0.06575344418026607,0.06575344418026607,0.06290842371616467,0.08333557574199706
0.5295,0.0674131914190044,0.04475656626135628,0.04475656626135628,0.06292381504287273,0.08347607418896126
0.53,0.0351180645123029,0.012267035457321444,0.012267035457321444,0.06293924122609372,0.08367588084531132
0.5305,0.0165020966754343,-0.00245982402007304,0.00245982402007304,0.06295469971216971,0.08378443946483592
0.531,0.0349672475860087,0.018357962861096675,0.018357962861096675,0.06297018794267274,0.08378011888786985
0.5315,0.0772172313059492,0.05763178358088703,0.05763178358088703,0.06298570335512252,0.08381668235429636
0.532,0.096381950723077,0.07267309262585869,0.07267309262585869,0.06300124338372842,0.0839197726731875
0.5325,0.0610146021467289,0.03817386730668651,0.03817386730668651,0.06301680546015506,0.08394661443364994
0.533,-0.0047897138014413,-0.02290529713683212,0.02290529713683212,0.06303238701431077,0.08375245252671068
0.5335,-0.044447836438698,-0.06067290586773348,0.06067290586773348,0.06304798547515793,0.08333377999833023
0.534,-0.0316627444796252,-0.05126760254542793,0.05126760254542793,0.06306359827154438,0.08291100594507128
0.5345,0.0030185989290141,-0.020159077072462235,0.020159077072462235,0.06307922283305487,0.08272920005883858
0.535,0.0135239486289807,-0.008537282805145686,0.008537282805145686,0.06309485659088136,0.08276452662631997
0.5355,-0.0048609660499727,-0.023363615703295638,0.023363615703295638,0.06311049697871127,0.0827942256573776
0.536,-0.0119912403096485,-0.02976345391700501,0.02976345391700501,0.06312614143363215,0.08274616411425131
0.5365,0.0260076403709619,0.006119360422719734,0.006119360422719734,0.06314178739705174,0.08272734526616876
0.537,0.0923835222286859,0.07178999632772044,0.07178999632772044,0.06315743231563152,0.08273133155051919
0.5375,0.1287833737303838,0.10941814636503214,0.10941814636503214,0.0631730736422324,0.0826948750256406
0.538,0.0846847273175875,0.06490856396215586,0.06490856396215586,0.0631887088368707,0.08266052594490896
0.5385,-0.0363182300644305,-0.057906761248991634,0.057906761248991634,0.06320433536768233,0.08265212978032517
0.539,-0.166888882606105,-0.18738469366169552,0.18738469366169552,0.06321995071189358,0.08266016024974016
0.5395,-0.217046234095473,-0.23407233010470246,0.23407233010470246,0.06323555235679644,0.08267809163881665
0.54,-0.1474410872381769,-0.16431693436590378,0.16431693436590378,0.06325113780072682,0.08268666227533814
0.5405,-0.0114211639244569,-0.03231521950090534,0.03231521950090534,0.06326670455404414,0.08267938762981755
0.541,0.0879498400999599,0.06468248067247857,0.06468248067247857,0.06328225014011085,0.08263609853626831
0.5415,0.0915949171700564,0.07078675909523693,0.07078675909523693,0.06329777209627127,0.08260268990468608
0.542,0.0323132291608888,0.015176445664004798,0.015176445664004798,0.06331326797482881,0.08269266164562179
0.5425,-0.0096331914758781,-0.026416996923150412,0.026416996923150412,0.06332873534402132,0.082869826238635
0.543,0.0092778564423135,-0.010263753995798836,0.010263753995798836,0.06334417178899393,0.08297355469808618
0.5435,0.0587772173564675,0.03705880296998,0.03705880296998,0.06335957491276883,0.0829551091923904
0.544,0.0754368263442476,0.05426733021802554,0.05426733021802554,0.06337494233721147,0.08290968635596004
0.5445,0.0312498230547363,0.01192248895918829,0.01192248895918829,0.06339027170399232,0.08291257389264498
0.545,-0.0402109156775803,-0.05848904512731439,0.05848904512731439,0.06340556067554333,0.08290948697196338
0.5455,-0.0784188730961476,-0.09682667050847599,0.09682667050847599,0.06342080693600805,0.08292967004656483
0.546,-0.0511776305891007,-0.07061446015792226,0.07061446015792226,0.06343600819218437,0.0831960973676164
0.5465,0.0197872780103654,-0.0010477238892899685,0.0010477238892899685,0.06345116217445858,0.08355735465007685
0.547,0.080765200886204,0.05963980854008173,0.05963980854008173,0.06346626663772958,0.08354201855428722
0.5475,0.0904709495543704,0.07099666693733264,0.07099666693733264,0.06348131936232214,0.08323772049114833
0.548,0.045215423639101,0.027489952218776086,0.027489952218776086,0.06349631815488771,0.08303036628809558
0.5485,-0.0305048481747309,-0.049097859903329884,0.049097859903329884,0.06351126084929172,0.08298410321970122
0.549,-0.1060810843032389,-0.12754055783104623,0.12754055783104623,0.06352614530748586,0.08302838720590969
0.5495,-0.1539309923287414,-0.1760844923391543,0.1760844923391543,0.0635409694203641,0.08304859585696163
0.55,-0.1489396933345362,-0.1679039254338612,0.1679039254338612,0.06355573110860076,0.08306399954080496
0.5505,-0.0797488308843872,-0.09624899970303115,0.09624899970303115,0.0635704283234696,0.08321784856869294
0.551,0.0295885106376714,0.010353777531087141,0.010353777531087141,0.06358505904764253,0.08337425177330632
0.5515,0.1221450597693413,0.09874058663684719,0.09874058663684719,0.06359962129596712,0.08333556844883896
0.552,0.1514301233240164,0.12937149392696695,0.12937149392696695,0.06361411311622227,0.08314009869291782
0.5525,0.1232761349613563,0.10626146611891196,0.10626146611891196,0.06362853258985132,0.08288272210231387
0.553,0.0832889199687626,0.06654017796906067,0.06654017796906067,0.06364287783267238,0.08265574254211261
0.5535,0.0652780350379414,0.043409016474891676,0.043409016474891676,0.06365714699556531,0.08260049068698329
0.554,0.066742476456204,0.04313519481901552,0.04313519481901552,0.06367133826513528,0.08277967049937653
0.5545,0.0706754436158319,0.051632120107428195,0.051632120107428195,0.06368544986435262,0.08303346761395052
0.555,0.0674321158308183,0.051303205317500676,0.051303205317500676,0.06369948005316885,0.08314300538771321
0.5555,0.0515791299214159,0.031779738530017726,0.031779738530017726,0.06371342712910895,0.08314282738846418
0.556,0.023200402250528,-0.000726636503305858,0.000726636503305858,0.06372728942783946,0.08321725806592899
0.5565,0.0059204149715808,-0.016032705568836368,0.016032705568836368,0.06374106532371226,0.08336169473831191
0.557,0.042580867566232,0.02549150289190062,0.02549150289190062,0.06375475323028372,0.08342500772850235
0.5575,0.148016427002533,0.13151947099297173,0.13151947099297173,0.06376835160080876,0.08332715640559965
0.558,0.268962143812735,0.24836019748461763,0.24836019748461763,0.06378185892870919,0.08314871140223248
0.5585,0.3129950277706736,0.2894125729231379,0.2894125729231379,0.06379527374801562,0.08308395512318563
0.559,0.2314568635839863,0.20942200831193764,0.20942200831193764,0.0638085946337824,0.08315953229303999
0.5595,0.0712554766604414,0.0527561601491954,0.0527561601491954,0.06382182020247498,0.0832147091323808
0.56,-0.0626240200289794,-0.07965268115977385,0.07965268115977385,0.0638349491123302,0.08321680411890693
0.5605,-0.0991087527328883,-0.11778304842188288,0.11778304842188288,0.06384798006368965,0.08315108215472808
0.561,-0.05820573012549,-0.07957963036603748,0.07957963036603748,0.06386091179930747,0.08291986076003986
0.5615,-0.0208618870856376,-0.04323951877701315,0.04323951877701315,0.06387374310463365,0.08265820245679162
0.562,-0.0450614323181789,-0.06591920696216683,0.06591920696216683,0.06388647280807433,0.08257847303944381
0.5625,-0.112152873482005,-0.13075106474032988,0.13075106474032988,0.06389909978123075,0.08257716609522982
0.5630000000000001,-0.1531413377490381,-0.1708968137548093,0.1708968137548093,0.06391162293911813,0.08251608951274664
