tiempo_s,senal_cruda,senal_filtrada,rectificada,envolvente,rms_movil
0.0,0.0030613755027652,-0.003381732224789727,0.003381732224789727,0.02262574724228069,0.047430872674660784
0.0005,0.1230193967940415,0.11654589195278534,0.11654589195278534,0.02291735241958804,0.047476532021596095
0.001,0.1818270135175875,0.17713459409646143,0.17713459409646143,0.02320931889427285,0.04749958416265031
0.0015,0.1573859448155944,0.15500771905444535,0.15500771905444535,0.02350161522236523,0.04750110310999262
0.002,0.0751918527586874,0.07359855805142917,0.07359855805142917,0.023794209859111785,0.04750143226106416
0.0025,-0.0132260486228241,-0.015000093746221861,0.015000093746221861,0.024087071166833347,0.04750187352011309
0.003,-0.0605101510555542,-0.06153655736426918,0.06153655736426918,0.02438016742282468,0.04751328096535271
0.0035,-0.046298241572943,-0.04562973689177631,0.04562973689177631,0.024673466827291338,0.04753482151871387
0.004,0.0130976481955712,0.01488519795778747,0.01488519795778747,0.024966937511319072,0.047541239493030546
0.0045,0.0733065311733076,0.07514086313368448,0.07514086313368448,0.025260547544871316,0.04754687639196549
0.005,0.0895325611236805,0.09126392863693408,0.09126392863693408,0.025554264944810393,0.047602670851904796
0.0055,0.0481642262297578,0.05044501678127489,0.05044501678127489,0.025848057682938123,0.04770760073476779
0.006,-0.0219953490214301,-0.018530085513580423,0.018530085513580423,0.02614189369405165,0.047815094190632505
0.0065,-0.0704475568207104,-0.06577502625131826,0.06577502625131826,0.026435740884010368,0.04790749080395795
0.007,-0.0638411421177937,-0.05877617739627084,0.05877617739627084,0.02672956713781003,0.04799659975895524
0.0075,-0.0125111010357734,-0.008000511384950301,0.008000511384950301,0.027023340327660135,0.048073117487699844
0.008,0.0387186911220473,0.04280295066512824,0.04280295066512824,0.02731702832106087,0.04809387553922106
0.0085,0.0493756445254613,0.05403746830779219,0.05403746830779219,0.027610598988875905,0.04811367415156386
0.009,0.0175641877406774,0.023162736553110096,0.023162736553110096,0.02790402021339743,0.048339439095134544
0.0095,-0.0212542097109847,-0.015277898112252766,0.015277898112252766,0.028197259896399776,0.04876931616126588
0.01,-0.0279327109030215,-0.021842013702050193,0.021842013702050193,0.02849028596717817,0.04906482405500844
0.0105,0.0056603836006803,0.011899974602426595,0.011899974602426595,0.028783066390569014,0.04910178878140684
0.011,0.0493141172278507,0.05501916708048081,0.05501916708048081,0.02907556917494821,0.04913828927448574
0.0115,0.059177498332908,0.06393344365080297,0.06393344365080297,0.02936776238020402,0.04930052262381163
0.012,0.0160937540821422,0.021203440149372407,0.021203440149372407,0.02965961412568084,0.0494446872025056
0.0125,-0.0543379837839026,-0.047830832841605525,0.047830832841605525,0.029951092598090423,0.0494833371121976
0.013,-0.1024312815679362,-0.09586213550863477,0.09586213550863477,0.030242166059387003,0.04948464022566251
0.0135,-0.0990186278348376,-0.09364702954872875,0.09364702954872875,0.03053280285460289,0.04954325691116161
0.014,-0.0588855754888922,-0.05369841001282406,0.05369841001282406,0.03082297141964114,0.04967778023320356
0.0145,-0.0223601513299652,-0.016845862124061677,0.016845862124061677,0.03111264028902209,0.049801705234427486
0.015,-0.0178493590584197,-0.013537664642782226,0.013537664642782226,0.03140177810358058,0.049831422738555654
0.0155,-0.0374948063408246,-0.034295585340244364,0.034295585340244364,0.03169035361811089,0.04984169262384996
0.016,-0.0430923383123704,-0.03816701924443658,0.03816701924443658,0.03197833570895654,0.04993792651599943
0.0165,-0.0029993738826213,0.00421001423432887,0.00421001423432887,0.03226569338154197,0.050039468774495534
0.017,0.0670213613007423,0.0726337086986653,0.0726337086986653,0.03255239577784332,0.05005636668291142
0.0175,0.1068857396730774,0.10809713472881607,0.10809713472881607,0.03283841218379536,0.050069543879768884
0.018,0.0710018063444098,0.07073163658609345,0.07073163658609345,0.033123712036631635,0.05013290092315063
0.0185,-0.0159461550358093,-0.012591003847981584,0.012591003847981584,0.033408264932155075,0.050179474514173567
0.019,-0.0753059361733314,-0.068015671388759,0.068015671388759,0.03369204063193617,0.050184891828584176
0.0195,-0.0541336405217685,-0.0484414167050861,0.0484414167050861,0.033975009070436143,0.05018667701465662
0.02,0.017625955516734,0.017395372871581827,0.017395372871581827,0.03425714036205265,0.05018786270712868
0.0205,0.0598910621878434,0.05691667194423079,0.05691667194423079,0.03453840480808542,0.050196219513079836
0.021,0.0308379262173882,0.03182080320913315,0.03182080320913315,0.034818772903619545,0.050253220158268795
0.0215,-0.0314660006500799,-0.025715175245791234,0.025715175245791234,0.035098215344323995,0.05034448589046503
0.022,-0.0604781521343436,-0.0560399434496591,0.0560399434496591,0.03537670303316308,0.05040482977206466
0.0225,-0.0377555901171185,-0.038859065796153294,0.038859065796153294,0.03565420708701842,0.050415387958126466
0.023,-0.0030170520382203,-0.006606279808846784,0.006606279808846784,0.0359306988432192,0.050422926963199124
0.0235,0.003399676248644,0.0027778689730161817,0.0027778689730161817,0.03620614986597836,0.05051610650519977
0.024,-0.0122764696947136,-0.00940893755121955,0.00940893755121955,0.03648053195273243,0.050773698006113775
0.0245,-0.0127516461495519,-0.010727729646423005,0.010727729646423005,0.03675381714038268,0.05111590191734955
0.025,0.0216464702611253,0.019910798378175776,0.019910798378175776,0.037025977711435114,0.05131462289417888
0.0255,0.0724446823070804,0.0689251683393884,0.0689251683393884,0.03729698620003698,0.05133723302866827
0.026,0.1061589475517327,0.10449151158572705,0.10449151158572705,0.03756681539790704,0.05134397025629649
0.0265,0.1046797655973193,0.10538602077112931,0.10538602077112931,0.03783543836015714,0.051348154712972445
0.027,0.0713867345137348,0.07146813273115114,0.07146813273115114,0.03810282841100238,0.051370229460052506
0.0275,0.0202263614990955,0.01720797814175791,0.01720797814175791,0.038368959149357326,0.05145716827165796
0.028,-0.0294443326940797,-0.03395882459090411,0.03395882459090411,0.03863380445431589,0.051487757917352384
0.0285,-0.050978877647686,-0.053261479128763535,0.053261479128763535,0.03889733849051276,0.051504321815225886
0.029,-0.0215484465374623,-0.02122464548160341,0.02122464548160341,0.03915953571336403,0.05161730920351734
0.0295,0.0514606892336719,0.05052028767334933,0.05052028767334933,0.03942037087418517,0.05168773661618146
0.03,0.1219340342441046,0.11720942672395851,0.11720942672395851,0.03967981902518411,0.051687906695218215
0.0305,0.1386664666395144,0.1328388964468382,0.1328388964468382,0.039937855524327416,0.05171520614942128
0.031,0.091590106258338,0.08885750010346666,0.08885750010346666,0.0401944560400775,0.05173061234568196
0.0315,0.0177692901116311,0.017821269171076695,0.017821269171076695,0.040449596555998966,0.0517321502986009
0.032,-0.0401637003423359,-0.041824590701164066,0.041824590701164066,0.04070325337523232,0.05174433242782558
0.0325,-0.0726117515361556,-0.07814945327288374,0.07814945327288374,0.04095540312483348,0.051744462103558785
0.033,-0.0938235564496407,-0.09998353434427491,0.09998353434427491,0.041206022759977715,0.05179044560746029
0.0335,-0.10484413891282,-0.10803070428692528,0.10803070428692528,0.04145508956802662,0.0518760610013325
0.034,-0.0848951232354279,-0.0861463259567086,0.0861463259567086,0.0417025811724569,0.05189715722012358
0.0345,-0.0238492213707713,-0.02637810822914086,0.02637810822914086,0.041948475536649855,0.051917340935839135
0.035,0.0503455362393446,0.04571388245920922,0.04571388245920922,0.04219275096754055,0.052073107462285766
0.0355,0.0877696094587897,0.08244098621547946,0.08244098621547946,0.04243538611912586,0.05232474318921617
0.036,0.0602966826200947,0.055578547236360604,0.055578547236360604,0.04267635999583072,0.0525488623825649
0.0365,-0.0118237322169387,-0.015237277401913926,0.015237277401913926,0.042915651955731916,0.05269318341246116
0.037,-0.0761433146905281,-0.07840765052483295,0.07840765052483295,0.04315324171363887,0.05276711878922218
0.0375,-0.0922853987983199,-0.0950748010082044,0.0950748010082044,0.043389109344030945,0.052794566765506944
0.038,-0.0626881471476757,-0.06769653631173249,0.06769653631173249,0.043623235283850696,0.05279925006491183
0.0385,-0.0203462975443245,-0.02661796884730487,0.02661796884730487,0.04385560033515271,0.05279935587663832
0.039,0.0097366337087933,0.005125246063550436,0.005125246063550436,0.04408618566760767,0.052804168344532665
0.0395,0.0290451656334194,0.027105024005386162,0.027105024005386162,0.0443149728208613,0.052817631974201584
0.04,0.0449387149919169,0.04312269805883073,0.04312269805883073,0.044541943706748105,0.052838444908834464
0.0405,0.0437754332438251,0.039161062600654696,0.039161062600654696,0.04476708061135954,0.05285389213686499
0.041,-0.0004732512673678,-0.00725597455917377,0.00725597455917377,0.044990366196966336,0.052855036543079104
0.0415,-0.0877304935050267,-0.0931377011851445,0.0931377011851445,0.0452117835037947,0.05286316947775246
0.042,-0.1729289536481176,-0.1751267446966954,0.1751267446966954,0.045431315951655886,0.05288397794475552
0.0425,-0.1983260624725767,-0.19970888065583275,0.19970888065583275,0.045648947341428804,0.052884943995983036
0.043,-0.1469515576669625,-0.15092296068449676,0.15092296068449676,0.04586466185639526,0.05294288936173334
0.0435,-0.0574031459035602,-0.06374658514996127,0.06374658514996127,0.04607844406342775,0.05322718190242737
0.044,0.0174590945428846,0.011964549404049715,0.011964549404049715,0.04629027891402993,0.05368178240092292
0.0445,0.060418989341289,0.05726406013995475,0.05726406013995475,0.046500151745230284,0.05403084134589651
0.045,0.0934359065926207,0.09092698738674565,0.09092698738674565,0.04670804828032987,0.054152935848894315
0.0455,0.1370985985933115,0.13367739420762034,0.13367739420762034,0.04691395462950512,0.054159803559327105
0.046,0.1765560025654403,0.172516082827453,0.172516082827453,0.047117857290266706,0.054170666992261716
0.0465,0.1707112512601122,0.166238185283008,0.166238185283008,0.04731974314777571,0.05420154840563626
0.047,0.0943725711815403,0.08915181424498736,0.08915181424498736,0.047519599475018486,0.05422513985760089
0.0475,-0.0257856886781278,-0.03057644119746733,0.03057644119746733,0.04771741393284163,0.05423446454795744
0.048,-0.1172548868432945,-0.1199402247786176,0.1199402247786176,0.047913174569849275,0.05423987398859595
0.0485,-0.1145927295158572,-0.11633129531656035,0.11633129531656035,0.04810686982216478,0.05425357782351968
0.049,-0.0180058910024678,-0.021786071989721368,0.021786071989721368,0.04829848851305932,0.054288633551963644
0.0495,0.1007258536332342,0.09468056498459178,0.09468056498459178,0.0484880198524501,0.0543298560857142
0.05,0.1564317976263068,0.1510736583446631,0.1510736583446631,0.04867545343627084,0.0543464900077247
0.0505,0.1176982025617952,0.11471120095625768,0.11471120095625768,0.04886077924571755,0.05434699168310536
0.051,0.02191119126495,0.019688160560255158,0.019688160560255158,0.04904398764637262,0.054347474251200324
0.0515,-0.0648003459732201,-0.06838056809155092,0.06838056809155092,0.04922506938721043,0.0543481637270528
0.052,-0.0975703285774294,-0.10246244532212676,0.10246244532212676,0.04940401559948793,0.054357899271820664
0.0525,-0.0737626271163508,-0.07834568370807772,0.07834568370807772,0.04958081779552376,0.05436733053191773
0.053,-0.0209830675188919,-0.024369246602331213,0.024369246602331213,0.04975546786736954,0.054367436840432
0.0535,0.0275494669170448,0.024388400470916324,0.024388400470916324,0.04992795808537712,0.05439350947381832
0.054,0.0508056960049693,0.04658754413598616,0.04658754413598616,0.05009828109666563,0.054460053143069315
0.0545,0.0459971769987909,0.04130839604039887,0.04130839604039887,0.050266429923492305,0.05452188693695249
0.055,0.025417772495659,0.021920252415732963,0.021920252415732963,0.050432397961530796,0.05454981803655854
0.0555,0.0055185797221042,0.002997623623320225,0.002997623623320225,0.05059617897806091,0.054559124056972795
0.056,-0.0058047289178452,-0.009568990233232565,0.009568990233232565,0.050757767110073605,0.05456792033428552
0.0565,-0.0113712040149707,-0.016895467912818776,0.016895467912818776,0.05091715686229491,0.05458655796669891
0.057,-0.0133937724448182,-0.018008331767722888,0.018008331767722888,0.05107434310513233,0.054605972450475514
0.0575,-0.0056486269684307,-0.007730792820654876,0.007730792820654876,0.051229321072547386,0.054607119980837386
0.058,0.0153172517874831,0.013180726661388299,0.013180726661388299,0.05138208635985747,0.05463193790382967
0.0585,0.0349567177629493,0.030033827290223414,0.030033827290223414,0.051532634921470324,0.05474018787229365
0.059,0.0298373602624436,0.023936313272524573,0.023936313272524573,0.051680963068554193,0.05488742523159815
0.0595,-0.0048154860441003,-0.008301565750364878,0.008301565750364878,0.05182706746664659,0.054993198763149065
0.06,-0.0462668519163309,-0.04790232492606069,0.04790232492606069,0.05197094513320445,0.05505617303797373
0.0605,-0.0668306522572843,-0.06998290127114656,0.06998290127114656,0.05211259343509847,0.05512006312638017
0.061,-0.0580408415017788,-0.06338446298598495,0.06338446298598495,0.052252010086054075,0.055228957941939
0.0615,-0.0296945497553987,-0.03449655116357112,0.03449655116357112,0.05238919314404172,0.05539163760314958
0.062,0.0052371358389729,0.002514278901346815,0.002514278901346815,0.05252414100861883,0.055555337392574636
0.0625,0.0358965437180364,0.033549739495160685,0.033549739495160685,0.05265685241822604,0.055668028720190624
0.063,0.0498749311977847,0.046014721327416894,0.046014721327416894,0.05278732644744,0.055725078733795445
0.0635,0.0372651575423507,0.032356556889869874,0.032356556889869874,0.05291556250418524,0.055742672215651656
0.064,0.0023329245254349,-0.0019040959315350554,0.0019040959315350554,0.05304156032690749,0.05574268206319116
0.0645,-0.0338955011403622,-0.03668799639513867,0.03668799639513867,0.05316531998171052,0.05576291794677506
0.065,-0.04785521391146,-0.050254047672231454,0.050254047672231454,0.05328684185945883,0.05582173863741599
0.0655,-0.0324617994717196,-0.03615488954272873,0.03615488954272873,0.05340612667284809,0.055877395281088996
0.066,-0.0013116124062982,-0.00628241999598865,0.00628241999598865,0.05352317545344544,0.05589819266975767
0.0665,0.0269126052709231,0.02259382117244043,0.02259382117244043,0.05363798954870151,0.05590351109701905
0.067,0.044845956905813,0.042218789455973356,0.042218789455973356,0.053750570618935886,0.0559135941368181
0.0675,0.054291244700285,0.05199134838691502,0.05199134838691502,0.05386092063429784,0.055943765450970205
0.068,0.0538069611805791,0.05016220950101072,0.05016220950101072,0.05396904187170397,0.055965949049677555
0.0685,0.0385252743198621,0.03371377742002163,0.03371377742002163,0.05407493691175414,0.05596762200247108
0.069,0.0136184731405118,0.009120057529291674,0.009120057529291674,0.05417860863562744,0.05604155496195538
0.0695,-9.891801170565372e-05,-0.0032220130824609644,0.0032220130824609644,0.0542800602219594,0.05614177306405846
0.07,0.0178376807180035,0.01566783541733412,0.01566783541733412,0.05437929514370192,0.056146229487016745
0.0705,0.0630415652211648,0.060194649137073675,0.060194649137073675,0.05447631716496723,0.0562615103538893
0.071,0.1012403032767743,0.09671420743295626,0.09671420743295626,0.054571130337856974,0.05665288813828833
0.0715,0.0953251073724856,0.0901524469533089,0.0901524469533089,0.054663738999277504,0.05703403292019951
0.072,0.0413548184683881,0.03735435440673264,0.03735435440673264,0.05475414776774236,0.05717404055443715
0.0725,-0.0253439225337004,-0.027773979282078143,0.027773979282078143,0.05484236154016295,0.05718333471705451
0.073,-0.062860731677901,-0.06506665884457077,0.06506665884457077,0.05492838548862835,0.05718591313220367
0.0735,-0.0606403988416524,-0.0642647077068268,0.0642647077068268,0.05501222505717531,0.0571864810390451
0.074,-0.0440120156855352,-0.04925738242123873,0.04925738242123873,0.055093885958549596,0.05720383883200213
0.0745,-0.0419515611492643,-0.047127650425813926,0.047127650425813926,0.055173374170959605,0.05731575682192485
0.075,-0.0534772820523174,-0.056920582468364976,0.056920582468364976,0.055250695934823464,0.057546380996800824
0.0755,-0.0507455164354876,-0.0529937183521991,0.0529937183521991,0.055325857749510446,0.0577645251715491
0.076,-0.0160402832165799,-0.019021359380456748,0.019021359380456748,0.05539886637007795,0.057838355146576176
0.0765,0.0305588359818477,0.026016472965259475,0.026016472965259475,0.05546972880400492,0.057838357897599224
0.077,0.0460701675436904,0.04077455235710142,0.04077455235710142,0.05553845230792277,0.0578748080632897
0.0775,0.0073803429932835,0.002509599704772299,0.002509599704772299,0.05560504438434477,0.057923393645013393
0.078,-0.0618743535289469,-0.06561872448848255,0.06561872448848255,0.055669512778394714,0.057949272445636225
0.0785,-0.1071782086719031,-0.11003549560244763,0.11003549560244763,0.05573186547453575,0.05796604618959115
0.079,-0.0883617888166015,-0.09176074474351939,0.09176074474351939,0.05579211069329995,0.05799012586344654
0.0795,-0.0138083536151515,-0.01894051417267934,0.01894051417267934,0.0558502568880194,0.05802008612944821
0.08,0.0678062970889408,0.061915796119159594,0.061915796119159594,0.05590631274155933,0.0580397799135286
0.0805,0.1093669348075171,0.10472070451587559,0.10472070451587559,0.05596028716305411,0.05805100031295455
0.081,0.0992119016663265,0.09580994928100368,0.09580994928100368,0.05601218928464691,0.058070747243264546
0.0815,0.0587530030270906,0.05470839276139014,0.05470839276139014,0.05606202845823366,0.05812196281256862
0.082,0.016736025463169,0.011364181618406176,0.011364181618406176,0.05610981425221242,0.05818930471040181
0.0825,-0.0101337000366618,-0.015490147693918606,0.015490147693918606,0.05615555644823886,0.05821651983272221
0.083,-0.0193527648506674,-0.02386652193022904,0.02386652193022904,0.056199265037989075,0.058216934011423964
0.0835,-0.0164108301907482,-0.021115293108487043,0.021115293108487043,0.05624095021993052,0.05825192907004642
0.084,-0.0087784518751856,-0.014494756128240756,0.014494756128240756,0.05628062239610214,0.058317012603284084
0.0845,-0.0017806053133141,-0.007415633013234621,0.007415633013234621,0.056318292168904334,0.05836711804808032
0.085,0.0019256195871476,-0.002537421438339168,0.002537421438339168,0.05635397033789956,0.05838682371370046
0.0855,-0.0018576276952605,-0.0063050147206388475,0.0063050147206388475,0.05638766789662399,0.05838906158356211
0.086,-0.0202691290088004,-0.026360031722299913,0.026360031722299913,0.05641939602941063,0.05839032857588553
0.0865,-0.0532005834290752,-0.06017810690393783,0.06017810690393783,0.05644916610822401,0.058400468292485096
0.087,-0.0813200178912139,-0.08710286408468175,0.08710286408468175,0.05647698968950659,0.05842084178961716
0.0875,-0.0744427973438388,-0.07886045393425616,0.07886045393425616,0.05650287851103668,0.058446215334440735
0.088,-0.0206159061637046,-0.025496387916618332,0.025496387916618332,0.05652684448879762,0.05846911738738228
0.0885,0.0541439150554599,0.047689858210302624,0.047689858210302624,0.05654889971385817,0.05848347147150536
0.089,0.1005322632093571,0.09339074106728999,0.09339074106728999,0.056569056449263695,0.05848797773182726
0.0895,0.0846004023848373,0.07824069637348317,0.07824069637348317,0.05658732712693824,0.058488035710716514
0.09,0.0158667360702293,0.01045604233646391,0.01045604233646391,0.05660372434459698,0.05848881386324476
0.0905,-0.0591428426481428,-0.06479617610996191,0.06479617610996191,0.056618260862669224,0.058488936070310624
0.091,-0.0908377967865299,-0.09743809348099122,0.09743809348099122,0.056630949601231634,0.05849165437684406
0.0915,-0.0593877655857517,-0.06605040066707996,0.06605040066707996,0.05664180363695159,0.058505138451098546
0.092,0.0159941036485552,0.010091029825876119,0.010091029825876119,0.05665083620004061,0.05852377029293845
0.0925,0.0918584447175852,0.08575873633006717,0.08575873633006717,0.05665806067121768,0.05853737742512188
0.093,0.1270104576747759,0.11965619846949735,0.11965619846949735,0.05666349057868249,0.058547272621845135
0.0935,0.1068457598658768,0.09942370953461172,0.09942370953461172,0.056667139595098476,0.05855854746139648
0.094,0.0505060244387731,0.04476410737442249,0.04476410737442249,0.056669021534585695,0.058568515477604326
0.0945,-0.0072909247296901,-0.01228430238565257,0.01228430238565257,0.05666915034972348,0.05856958444250787
0.095,-0.0443862859688126,-0.051129105019491736,0.051129105019491736,0.056667540128563176,0.058574644237270865
0.0955,-0.0602051860918566,-0.06870177219527043,0.06870177219527043,0.056664205091651036,0.05858633724456
0.096,-0.0595565836483155,-0.06708654130871797,0.06708654130871797,0.056659159589061606,0.058586358893460366
0.0965,-0.0382833667838552,-0.04356071100093082,0.04356071100093082,0.05665241809744173,0.05863740696113516
0.097,0.0070919331905414,0.0020321786568359857,0.0020321786568359857,0.05664399521706538,0.05880296538088836
0.0975,0.0611893399155134,0.0541403577362823,0.0541403577362823,0.05663390566889946,0.05898046564159978
0.098,0.0934134141199587,0.08503697534270353,0.08503697534270353,0.05662216429168077,0.05905443379019377
0.0985,0.0840270600509896,0.0766339153799305,0.0766339153799305,0.05660878603900419,0.05905896088014702
0.099,0.0425440024426722,0.03701719063332108,0.03701719063332108,0.05659378597642209,0.05906650847967523
0.0995,-0.0022252948586265,-0.007411313461984113,0.007411313461984113,0.0565771792785551,0.05909302858403585
0.1,-0.0279685137775241,-0.034792714514120957,0.034792714514120957,0.05655898122621413,0.05913276054662675
0.1005,-0.0323511591218399,-0.040504167117178115,0.040504167117178115,0.0565392072035338,0.05919144864042172
0.101,-0.0229309169156861,-0.030031010286416644,0.030031010286416644,0.05651787269511721,0.05928278102017149
0.1015,-0.0013473221633299,-0.006614170600878825,0.006614170600878825,0.05649499328319194,0.05940568473026522
0.102,0.0353603828334511,0.02970811121868773,0.02970811121868773,0.0564705846447771,0.059524378925050046
0.1025,0.081089355233609,0.07367259881326758,0.07367259881326758,0.05644466254886111,0.05959448760099887
0.103,0.1180941316071798,0.11081597135436712,0.11081597135436712,0.05641724285358989,0.05961451853380933
0.1035,0.1295117412834226,0.1239763935185397,0.1239763935185397,0.05638834150346487,0.059616102154663266
0.104,0.1095453330603843,0.1040538429470554,0.1040538429470554,0.056357974526550315,0.05961615372922041
0.1045,0.0644133422100344,0.05714508254410164,0.05714508254410164,0.05632615803168961,0.059617302414971235
0.105,0.0115733593180057,0.004037580617191491,0.004037580617191491,0.056292908205730005,0.05962241736666485
0.1055,-0.0247805976627872,-0.030356663283811394,0.030356663283811394,0.056258241310755686,0.05963046520339991
0.106,-0.0304356256914089,-0.03504946979933104,0.03504946979933104,0.05622217368132908,0.05964072246141438
0.1065,-0.0185579268881333,-0.02475097561264307,0.02475097561264307,0.056184721721740286,0.0596567597225331
0.107,-0.0219497116217912,-0.029632661665224908,0.029632661665224908,0.056145901903264545,0.0596791598848208
0.1075,-0.0595789095187903,-0.06651213757044404,0.06651213757044404,0.05610573076142742,0.05969626552949362
0.108,-0.112248355676446,-0.11773584973426192,0.11773584973426192,0.05606422489327748,0.05970064446280611
0.1085,-0.1358883495234249,-0.14121508115166242,0.14121508115166242,0.05602140095466605,0.059700814939166354
0.109,-0.0996519523392568,-0.10559177301612001,0.10559177301612001,0.05597727565753346,0.05970204447583675
0.1095,-0.0131942240363113,-0.01947214773440775,0.01947214773440775,0.055931865767201674,0.05971706732690723
0.11,0.0777061896846678,0.07124134191966411,0.07124134191966411,0.0558851880996729,0.05975110461567636
0.1105,0.1221636063770538,0.11559842078814679,0.11559842078814679,0.05583725951893416,0.0597681204452722
0.111,0.0992297109907335,0.09299156883160256,0.09299156883160256,0.05578809693426796,0.05977002956590566
0.1115,0.0304444496823781,0.024663413973813393,0.024663413973813393,0.05573771729756913,0.05983538117974812
0.112,-0.0394303867386721,-0.04520823446985342,0.04520823446985342,0.055686137600668185,0.06000384434496373
0.1125,-0.0758411818604644,-0.08198944130565831,0.08198944130565831,0.05563337487266141,0.0602186176668219
0.113,-0.0751840744020572,-0.08160782850796564,0.08160782850796564,0.05557944617724807,0.060396035854734874
0.1135,-0.0601249856908202,-0.06657282733387682,0.06657282733387682,0.05552436861007525,0.060492639427243915
0.114,-0.0569864616730155,-0.06342037400661799,0.06342037400661799,0.0554681592960907,0.06052032000471404
0.1145,-0.0740610409414563,-0.08054135838335563,0.08054135838335563,0.05541083538690403,0.06052134202848256
0.115,-0.0963145131418499,-0.10267925793331169,0.10267925793331169,0.05535241405815706,0.060523820190662124
0.1155,-0.0984037933872741,-0.10453561653170336,0.10453561653170336,0.05529291250690362,0.060527806064777874
0.116,-0.0653902127046405,-0.07167423716191018,0.07167423716191018,0.055232347948999665,0.0605284700345508
0.1165,-0.0054633612900772,-0.012318659932766624,0.012318659932766624,0.05517073761650438,0.060529808815716894
0.117,0.0553800668679157,0.048229177508339965,0.048229177508339965,0.055108098755093184,0.06054325723752396
0.1175,0.0915893202082658,0.08474300134978144,0.08474300134978144,0.05504444862148358,0.06058853693555064
0.118,0.093494242737578,0.0870213528084291,0.0870213528084291,0.05497980448087492,0.06067950237876997
0.1185,0.0698238765515696,0.06319927279402357,0.06319927279402357,0.05491418360440303,0.060782491869651456
0.119,0.0398433383443187,0.03258885989702119,0.03258885989702119,0.05484760326661084,0.060828928279354835
0.1195,0.0226701953108295,0.01498288163620818,0.01498288163620818,0.05478008074293599,0.06082893110404526
0.12,0.0285285277517112,0.021220502216036587,0.021220502216036587,0.0547116333072166,0.06088256023106183
0.1205,0.0534206140396633,0.04682026565209262,0.04682026565209262,0.05464227822921624,0.061003517414062534
0.121,0.0789457075885751,0.07207712796976132,0.07207712796976132,0.05457203277216925,0.061091492603626944
0.1215,0.0811297835256356,0.07298304902104881,0.07298304902104881,0.054500914190347395,0.06111507676442992
0.122,0.0484570834157169,0.039777539735264024,0.039777539735264024,0.05442893972664869,0.061120473204621495
0.1225,-0.0037190166173548,-0.011412729576870777,0.011412729576870777,0.05435612661020946,0.06114554965574001
0.123,-0.0409273885941574,-0.047734193341411726,0.047734193341411726,0.05428249205404031,0.06127284693114696
0.1235,-0.0380199535090342,-0.04536634903677871,0.04536634903677871,0.054208053252687065,0.061526864675512584
0.124,-0.0010045469909703,-0.009477370597698032,0.009477370597698032,0.054132827379917405,0.06175697570521758
0.1245,0.0395226021355866,0.03060752669576683,0.03060752669576683,0.05405683158643401,0.061858825997053064
0.125,0.0550649756290741,0.04654787920924064,0.04654787920924064,0.05398008299761503,0.06188270844361416
0.1255,0.0409727709191611,0.03308627228217616,0.03308627228217616,0.05390259871128238,0.06188636599355129
0.126,0.016355176194442,0.008494146262305071,0.008494146262305071,0.05382439579549847,0.061666494996606695
0.1265,0.0046497605354636,-0.003954123563844669,0.003954123563844669,0.05374549128639178,0.06116544020959452
0.127,0.0135963010348913,0.004578267595629636,0.004578267595629636,0.05366590218601177,0.06080945175059584
0.1275,0.031814979014921,0.023279606651823482,0.023279606651823482,0.0535856454602133,0.06075126896085406
0.128,0.0403631371188051,0.03199522404542879,0.03199522404542879,0.05350473803657072,0.060747647945838666
0.1285,0.0265981883544049,0.017467050662662156,0.017467050662662156,0.05342319680232161,0.060716180211985306
0.129,-0.0069010192117155,-0.016370737600337172,0.016370737600337172,0.05334103860234003,0.06072191751304244
0.1295,-0.0428055836974466,-0.05152095496951272,0.05152095496951272,0.05325828023713898,0.060719095202834326
0.13,-0.0625623157963471,-0.07071384458940799,0.07071384458940799,0.05317493846090159,0.060659952923673544
0.1305,-0.0630042839351091,-0.07165216183424669,0.07165216183424669,0.053091029979540676,0.06058950693520659
0.131,-0.056943128770084,-0.06649978448182137,0.06649978448182137,0.053006571448785865,0.06058007089750373
0.1315,-0.0553608503991556,-0.065367856359325,0.065367856359325,0.05292157947229793,0.06058508883666929
0.132,-0.0510849633641975,-0.06062605283560034,0.06062605283560034,0.05283607059980952,0.06054165347031951
0.1325,-0.0232333637868557,-0.031593032427208415,0.031593032427208415,0.052750061325291815,0.06060060386779863
0.133,0.0386663055223567,0.030860784020976695,0.030860784020976695,0.052663568085146675,0.06080959949025644
0.1335,0.113310000719641,0.10434493679464592,0.10434493679464592,0.05257660725642373,0.06093873994024281
0.134,0.1550598041619079,0.14447288120143484,0.14447288120143484,0.05248919515506192,0.06092933985305443
0.1345,0.1306564688186365,0.12023053004837245,0.12023053004837245,0.052401348034155124,0.06092071849366866
0.135,0.0511759371441066,0.042595199171715614,0.042595199171715614,0.052313082082241384,0.060930630806621554
0.1355,-0.0348852677284377,-0.04234271654693837,0.04234271654693837,0.05222441342161548,0.06093156088182263
0.136,-0.0809433676736279,-0.08935898991685803,0.08935898991685803,0.05213535810666479,0.060929310964885894
0.1365,-0.0742332009030161,-0.08436694131192096,0.08436694131192096,0.05204593212222835,0.060894809962602964
0.137,-0.0332243955481615,-0.04372390196318066,0.04372390196318066,0.05195615138197948,0.06086572877806302
0.1375,0.0170918303270294,0.00803014644525201,0.00803014644525201,0.05186603172683198,0.06089395757964662
0.138,0.0613271118556401,0.05387340300234895,0.05387340300234895,0.051775588923370246,0.06086654576610721
0.1385,0.0893849496616803,0.08169315617941054,0.08169315617941054,0.05168483866230361,0.06071644345218411
0.139,0.0881597566608146,0.07851113092527483,0.07851113092527483,0.05159379655694526,0.060595717864044295
0.1395,0.0491066192383354,0.038476277703540875,0.038476277703540875,0.051502478141715866,0.06059805916544038
0.14,-0.0136703956142497,-0.02262334482008821,0.02262334482008821,0.05141089887067235,0.06064908746274008
0.1405,-0.0623435147051566,-0.06928990224780211,0.06928990224780211,0.051319074116062055,0.06069012523118663
0.141,-0.0636441934905899,-0.07124580870603872,0.07124580870603872,0.05122701916690261,0.06069414492798506
0.1415,-0.0194753749739032,-0.02908100978619965,0.02908100978619965,0.051134749227587914,0.06067400443723985
0.142,0.0352857192205137,0.025684419732762767,0.025684419732762767,0.05104227941652053,0.06067573212762118
0.1425,0.0642565707142331,0.05634061875031216,0.05634061875031216,0.05094962476477083,0.060601334442376115
0.143,0.055902484498022,0.048331705681448234,0.048331705681448234,0.0508568002147632,0.06041414783174062
0.1435,0.0252433043802284,0.016487955120342367,0.016487955120342367,0.0507638206189897,0.060336756193054404
0.144,-0.0006279265442308,-0.009465250307538356,0.009465250307538356,0.05067070073875136,0.06041166994281126
0.1445,-0.0003063388237617,-0.007714056524751375,0.007714056524751375,0.0505774552429274,0.060520252645847254
0.145,0.0275544235530893,0.02048036005175454,0.02048036005175454,0.050484098706772555,0.06067511590271028
0.1455,0.0622501142772032,0.053505527145036126,0.053505527145036126,0.05039064561074246,0.060750422550406025
0.146,0.0774658564297361,0.06775368366295179,0.06775368366295179,0.050297110339347265,0.06069730452594763
0.1465,0.0630738536204255,0.05513440294219116,0.05513440294219116,0.05020350718003315,0.06074428748494082
0.147,0.0287635478148643,0.02307031228210163,0.02307031228210163,0.05010985032209163,0.06089465430085835
0.1475,-0.0129976271080927,-0.019496417205608643,0.019496417205608643,0.050016153855596324,0.06098612789607864
0.148,-0.0589448022760654,-0.068576427832649,0.068576427832649,0.049922431770366954,0.06101550849071336
0.1485,-0.103658278855216,-0.11421775862657092,0.11421775862657092,0.04982869795496028,0.06102405001176598
0.149,-0.1246585685104054,-0.13203601707121032,0.13203601707121032,0.049734966195687735,0.06103160424799436
0.1495,-0.0967106640032474,-0.10088382909983093,0.10088382909983093,0.04964125017565929,0.061073039009107113
0.15,-0.0283155152985303,-0.0340659086771622,0.0340659086771622,0.04954756347385354,0.0611692406790017
0.1505,0.0289823207058766,0.01859820743606127,0.01859820743606127,0.0494539195642138,0.06121745880494434
0.151,0.0262106294601101,0.014657945761533047,0.014657945761533047,0.0493603318147703,0.061144348212364884
0.1515,-0.026315619706647,-0.033671073275822444,0.033671073275822444,0.04926681348678878,0.06114949185810695
0.152,-0.0632325365724052,-0.0668569059980956,0.0668569059980956,0.04917337773394563,0.061337072397939674
0.1525,-0.0342449931789677,-0.0396802773311923,0.0396802773311923,0.049080037601529805,0.06149007109509982
0.153,0.0391630261493922,0.029205738224448413,0.029205738224448413,0.048986806025671674,0.06151346780618053
0.1535,0.0874371604841139,0.0763264166758887,0.0763264166758887,0.04889369583259885,0.06150856275014538
0.154,0.0684284535068007,0.06031379233736718,0.06031379233736718,0.04880071973791904,0.06150175466877574
0.1545,0.0084871125601212,0.002964964572984551,0.002964964572984551,0.04870789034592995,0.06149914036286633
0.155,-0.0313915876657422,-0.037568926944730754,0.037568926944730754,0.048615220148956376,0.061476273120704056
0.1555,-0.0200237551121268,-0.028228589958423426,0.028228589958423426,0.0485227215267144,0.0613166664867143
0.156,0.0181138610998158,0.008919665291109302,0.008919665291109302,0.048430406745702786,0.06106506551551589
0.1565,0.0343312274718046,0.02510541658973578,0.02510541658973578,0.04833828795862154,0.06093593602802953
0.157,0.0060923012123435,-0.002590365351609944,0.002590365351609944,0.048246377203817484,0.060990385576744764
0.1575,-0.0414799722809524,-0.048789844397532436,0.048789844397532436,0.04815468640475677,0.061079773980508525
0.158,-0.0600809349839462,-0.06661624724745416,0.06661624724745416,0.04806322736952382,0.061048981648163095
0.1585,-0.0248655990161896,-0.03308490982498212,0.03308490982498212,0.04797201179034645,0.06089223424362357
0.159,0.0429002159452259,0.032367903221661616,0.032367903221661616,0.04788105124314671,0.060702599414788797
0.1595,0.099994289900902,0.0899950857841784,0.0899950857841784,0.04779035718711681,0.060584660899209226
0.16,0.1221690099919946,0.114608527254002,0.114608527254002,0.047699940964319634,0.06057417095594681
0.1605,0.1156729012903888,0.10840707514807471,0.10840707514807471,0.04760981379931342,0.06054176199340703
0.161,0.0965596266186787,0.08714539700273188,0.08714539700273188,0.047519986798799936,0.060442861821339816
0.1615,0.0729447583071265,0.06243895889832068,0.06243895889832068,0.0474304709512959,0.06041059493091585
0.162,0.0475480183288959,0.03806215076480961,0.03806215076480961,0.04734127712682741,0.06040761064471672
0.1625,0.0244303137046805,0.015724621768439556,0.015724621768439556,0.04725241607664736,0.06032507398466197
0.163,0.0068412131087258,-0.0023636381712898447,0.0023636381712898447,0.04716389843297584,0.060214011362168494
0.1635,-0.0061341498371561,-0.015940727239437173,0.015940727239437173,0.047075734708763806,0.060140931240893925
0.164,-0.016552080158249,-0.026665078327803304,0.026665078327803304,0.04698793529747999,0.060163312318886074
0.1645,-0.0226515547200584,-0.03315880744035918,0.03315880744035918,0.04690051047292117,0.060264824598586814
0.165,-0.0181305882625838,-0.028571433560675784,0.028571433560675784,0.04681347038904569,0.060309464848843454
0.1655,0.0018659054660512,-0.007777337425777181,0.007777337425777181,0.04672682507983005,0.06027892010476944
0.166,0.0301902279267359,0.020734021116888567,0.020734021116888567,0.04664058445914835,0.06028822566397991
0.1665,0.0439586299860355,0.03316953442400031,0.03316953442400031,0.046554758320674176,0.06037376653934635
0.167,0.0193129052279307,0.007147663844695309,0.007147663844695309,0.04646935633780453,0.06034978940711813
0.1675,-0.0437432120686596,-0.05537252256523233,0.05537252256523233,0.04638438806360525,0.059997245220920675
0.168,-0.1129869568486393,-0.12284819759637157,0.12284819759637157,0.0462998629307773,0.05950076712687222
0.1685,-0.1462735679646851,-0.15588596547788747,0.15588596547788747,0.04621579025164325,0.059219059039914174
0.169,-0.1254267811993559,-0.13710954526473093,0.13710954526473093,0.0461321792181532,0.05916286737416307
0.1695,-0.0680258310294022,-0.08126698133012868,0.08126698133012868,0.0460490389019096,0.059170242665794605
0.17,-0.0073608274537792,-0.019285493647268045,0.019285493647268045,0.0459663782542105,0.05915350079073897
0.1705,0.0342099665289377,0.024257378275612022,0.024257378275612022,0.045884206106110985,0.05904617676078846
0.171,0.0517343874192691,0.04090652259736734,0.04090652259736734,0.04580253116850303,0.05876483357945601
0.1715,0.0490901297559645,0.03576271108183779,0.03576271108183779,0.045721362032213816,0.05828556806952907
0.172,0.0358766465084036,0.022487243353462208,0.022487243353462208,0.04564070716812276,0.05785515070025695
0.1725,0.0281666845808832,0.017128711205388142,0.017128711205388142,0.045560574927297495,0.05775560921135974
0.173,0.0375649701554277,0.027265145827035188,0.027265145827035188,0.04548097354114896,0.05775097288420461
0.1735,0.0560893013978923,0.043617807640266494,0.043617807640266494,0.0454019111216056,0.05750254378266131
0.174,0.0615221903719924,0.04731558598930979,0.04731558598930979,0.04532339566130678,0.05726955152205901
0.1745,0.0430911812146967,0.030064213488,0.030064213488,0.04524543503381533,0.05728143289721958
0.175,0.0162216085967491,0.005221534439353681,0.005221534439353681,0.045168036993849095,0.05716627268750528
0.1755,0.0060723232169058,-0.005121156185815441,0.005121156185815441,0.045091209177531406,0.05679311743956346
0.176,0.0191178273561145,0.006121397620447187,0.006121397620447187,0.04501495910266031,0.05656289213399995
0.1765,0.0365787333467529,0.02300339912778071,0.02300339912778071,0.04493929416899612,0.05656202409104727
0.177,0.0352110592406345,0.02264305546290118,0.02264305546290118,0.04486422165856713,0.05649359922397562
0.1775,0.0096074619405038,-0.0024041039462829386,0.0024041039462829386,0.04478974873599294,0.05631124791865805
0.178,-0.0252613138688365,-0.037654244647848195,0.037654244647848195,0.04471588244882476,0.056204528709663706
0.1785,-0.0476715676036253,-0.06018104131523004,0.06018104131523004,0.04464262972790199,0.05620780899297817
0.179,-0.0457577942942583,-0.05804639015432855,0.05804639015432855,0.044569997387724256,0.05620078437674083
0.1795,-0.0266794982755347,-0.039028788450425574,0.039028788450425574,0.04449799212683807,0.056180208648302754
0.18,-0.0100563303604876,-0.022531866794612637,0.022531866794612637,0.0444266205282371,0.056285133649177484
0.1805,-0.0093582869084015,-0.021907895206797322,0.021907895206797322,0.04435588905977524,0.05651541554346278
0.181,-0.019251876167863,-0.03189342442297901,0.03189342442297901,0.04428580407459144,0.05667313471045793
0.1815,-0.020436756404356,-0.0325570008624151,0.0325570008624151,0.04421637181154543,0.05668676093534193
0.182,0.0032451973546317,-0.00791597560252822,0.00791597560252822,0.04414759839566333,0.0567184932826311
0.1825,0.0481929865799455,0.03681770312180664,0.03681770312180664,0.04407948983859207,0.0568655757467219
0.183,0.0897299236024968,0.07694000638843199,0.07694000638843199,0.04401205203906157,0.05702878474284836
0.1835,0.1029520410968403,0.0898367415378358,0.0898367415378358,0.043945290783353456,0.057110736626584065
0.184,0.0878044853166767,0.07623142937444857,0.07623142937444857,0.04387921174577512,0.05712500214191387
0.1845,0.0691080126378116,0.058865437160041355,0.058865437160041355,0.04381382048913789,0.05713389687079907
0.185,0.0700231022820781,0.0593260881435359,0.0593260881435359,0.04374912246523825,0.0571604793423273
0.1855,0.0895269614218623,0.07751269669006805,0.07751269669006805,0.04368512301534093,0.05714793559908331
0.186,0.1073398052503451,0.09485705299603905,0.09485705299603905,0.04362182737066306,0.05706624103676743
0.1865,0.106830541634558,0.09529427171700165,0.09529427171700165,0.04355924065285847,0.05700774819470462
0.187,0.0892321995022309,0.07916409788902613,0.07916409788902613,0.0434973678745014,0.0570425086418063
0.1875,0.0659924579425283,0.05636922163615962,0.05636922163615962,0.04343621393956902,0.0570902525972492
0.188,0.0420806143220996,0.03131378174128574,0.03131378174128574,0.04337578364392235,0.05707682463194459
0.1885,0.0127888396332351,0.0007408968992695664,0.0007408968992695664,0.0433160816757851,0.05704205263247241
0.189,-0.0220000372864583,-0.033588795310004395,0.033588795310004395,0.043257112616220394,0.05702456014418704
0.1895,-0.0475932158618004,-0.057286501748720776,0.057286501748720776,0.04319888093960499,0.057045740347984514
0.19,-0.0471865284645507,-0.05575302186915968,0.05575302186915968,0.043141391014101034,0.057135663324593716
0.1905,-0.0245917728889345,-0.03409281703147564,0.03409281703147564,0.04308464710212484,0.057224791294289645
0.191,-0.0058596259602078,-0.017242523440345874,0.017242523440345874,0.04302865336081268,0.057231176808328864
0.1915,-0.011858515472443,-0.023742960243907027,0.023742960243907027,0.04297341384248309,0.057245879856309176
0.192,-0.0310241841163539,-0.04107848303155663,0.04107848303155663,0.042918932495095534,0.05733643509903767
0.1925,-0.0274154988734849,-0.035231805218700264,0.035231805218700264,0.042865213162705036,0.05738805688823527
0.193,0.0175613110105823,0.00967624876645709,0.00967624876645709,0.042812259585912484,0.0573505151286278
0.1935,0.0745889706332968,0.06434737734508142,0.06434737734508142,0.042760075402310124,0.057317222688467166
0.194,0.0870364550671941,0.07497599690025639,0.07497599690025639,0.04270866414692187,0.057342885636130395
0.1945,0.0268371426783239,0.015817756359682855,0.015817756359682855,0.04265802925263792,0.057398580993459306
0.195,-0.0724293548370281,-0.08049366960216321,0.08049366960216321,0.04260817405064308,0.05745192660049281
0.1955,-0.1418720567768415,-0.14864754809383382,0.14864754809383382,0.04255910177083849,0.05749058789859247
0.196,-0.1380906329165437,-0.14719235158966576,0.14719235158966576,0.04251081554225613,0.05744993796966036
0.1965,-0.077299963678601,-0.08941476997124659,0.08941476997124659,0.0424633183934658,0.0572907347179389
0.197,-0.011588621832395,-0.02305272264036611,0.02305272264036611,0.04241661325297446,0.05714886346301076
0.1975,0.0200660902758579,0.01214272212587926,0.01214272212587926,0.04237070294961787,0.05712546121409709
0.198,0.0124865445159931,0.0056988097494467815,0.0056988097494467815,0.042325590212944825,0.05711197591895301
0.1985,-0.0216411777619112,-0.03150843925529593,0.03150843925529593,0.042281277673594485,0.057040723578172484
0.199,-0.0675472471104062,-0.08005249200478057,0.08005249200478057,0.042237767863667106,0.056973072060908556
0.1995,-0.104291410999603,-0.11508689273530354,0.11508689273530354,0.04219506321708871,0.056931203376041455
0.2,-0.1046721122640081,-0.1121481218424339,0.1121481218424339,0.042153166069970015,0.05689560208331061
0.2005,-0.057808761896908,-0.06532594341816085,0.06532594341816085,0.042112078660959944,0.056858188629194
0.201,0.0113415962142804,0.0003988917796811306,0.0003988917796811306,0.04207180313159432,0.05683422937267486
0.2015,0.0590348163231995,0.04592256565047161,0.04592256565047161,0.04203234152664024,0.056837227586433614
0.202,0.064123543521407,0.05303830216247295,0.05303830216247295,0.041993695794437035,0.056825319104553254
0.2025,0.0463712851661786,0.03872109001174273,0.03872109001174273,0.04195586778723459,0.0567971258823001
0.203,0.0390292194610006,0.031179591684635244,0.031179591684635244,0.04191885926152995,0.05680004928581468
0.2035,0.0491914076608012,0.03736433329096227,0.03736433329096227,0.04188267187840309,0.05677623495197802
0.204,0.0557533006672035,0.04168750898181324,0.04168750898181324,0.041847307203852664,0.056699996177919834
0.2045,0.0452347289438103,0.03380575352103259,0.03380575352103259,0.04181276670913276,0.056687981169476806
0.205,0.0336463854497283,0.025520432243708854,0.025520432243708854,0.041779051771091306,0.05671935340408339
0.2055,0.0430923630025407,0.03386036072214595,0.03386036072214595,0.04174616367251115,0.05665875725261204
0.206,0.0675156131735392,0.05454757462294978,0.05454757462294978,0.04171410360245443,0.05657167859420645
0.2065,0.0765177490578973,0.06258043422021356,0.06258043422021356,0.04168287265661123,0.056566358524950545
0.207,0.0512604752959395,0.03979948965594833,0.03979948965594833,0.04165247183765314,0.05656596182369712
0.2075,0.0049489339044116,-0.0049104102045251785,0.0049104102045251785,0.04162290205559246,0.056576782536720244
0.208,-0.0337864204801615,-0.04514329790360213,0.04514329790360213,0.041594164128147995,0.05678622360050169
0.2085,-0.0482564880474931,-0.0615902532462559,0.0615902532462559,0.04156625878111802,0.05715322066027761
0.209,-0.0408576355450125,-0.05406713542878288,0.05406713542878288,0.04153918664876125,0.05736597262850153
0.2095,-0.0218399337404852,-0.03391691418887269,0.03391691418887269,0.04151294827418664,0.057374768826497925
0.21,0.0006001939469338,-0.011430862484395638,0.011430862484395638,0.041487544109752666,0.057425813428403104
0.2105,0.0214801679580197,0.00860112175434611,0.00860112175434611,0.04146297451747693,0.057526727404518134
0.211,0.0376299181926769,0.02433336784830642,0.02433336784830642,0.041439239769456786,0.05753742740843106
0.2115,0.0477200622997209,0.03449680148884782,0.03449680148884782,0.04141634004830178,0.05757409065895144
0.212,0.051767610285543,0.03850539905218631,0.03850539905218631,0.04139427544757855,0.057655812188010844
0.2125,0.0498469836983327,0.03658962380015826,0.03658962380015826,0.04137304597226879,0.05757067478246609
0.213,0.0421505638161351,0.028971945903684272,0.028971945903684272,0.04135265153924081,0.05749330802431463
0.2135,0.0299224523007931,0.0162342816339442,0.0162342816339442,0.041333091977735124,0.05775621173481304
0.214,0.016289393693065,0.001841485721985293,0.001841485721985293,0.04131436702986468,0.05807416326135948
0.2145,0.0073877231063816,-0.006746326083229689,0.006746326083229689,0.04129647635112997,0.05805617111167533
0.215,0.010411671611945,-0.0026735283419444793,0.0026735283419444793,0.04127941951094947,0.0579512475385947
0.2155,0.0258255180314782,0.012609304169902141,0.012609304169902141,0.041263195993205694,0.058067777510249254
0.216,0.0427904836382669,0.02808552511551762,0.02808552511551762,0.041247805196806986,0.05818070198545698
0.2165,0.0484956070629853,0.033018662286771513,0.033018662286771513,0.04123324643626504,0.058083629959283394
0.217,0.0426313626541017,0.028221149077803674,0.028221149077803674,0.04121951894228821,0.05801266136744129
0.2175,0.0370209975871035,0.02406839884047481,0.02406839884047481,0.04120662186239026,0.058136995964352144
0.218,0.0388239702762177,0.02569386436454165,0.02569386436454165,0.04119455426151445,0.05822498614845857
0.2185,0.0391139573921733,0.02416117196820111,0.02416117196820111,0.04118331512267251,0.05810181110053811
0.219,0.0241110117655761,0.00791253807833468,0.00791253807833468,0.04117290334759832,0.05794247670216504
0.2195,-0.0021827433015858,-0.01721519321396861,0.01721519321396861,0.04116331775741579,0.05792069710515167
0.22,-0.0134186479494488,-0.026172162792452734,0.026172162792452734,0.041154557093320346,0.05794288342495486
0.2205,0.0136930878949797,0.0011262015860362337,0.0011262015860362337,0.04114662001727374,0.057897915666261617
0.221,0.0696635734281332,0.05469939091269388,0.05469939091269388,0.04113950511271129,0.057900844453552584
0.2215,0.1150867453162757,0.09859828208486388,0.09859828208486388,0.04113321088526098,0.05804705750259997
0.222,0.1170844562241224,0.1022413559035136,0.1022413559035136,0.04112773576347351,0.05817795267653744
0.2225,0.0786826080724795,0.06607126069800098,0.06607126069800098,0.04112307809956261,0.05818851114587892
0.223,0.029427237099176,0.01635099327802448,0.01635099327802448,0.041119236170154644,0.05819812921013208
0.2235,-0.0060828011198441,-0.021113547035140567,0.021113547035140567,0.04111620817704709,0.05825985592010647
0.224,-0.0243512210018799,-0.039582845110812094,0.039582845110812094,0.041113992247975094,0.05830443658387076
0.2245,-0.034747941146434,-0.04846309230238435,0.04846309230238435,0.041112586437385815,0.058315025323165376
0.225,-0.0458193915137325,-0.058924622557064266,0.058924622557064266,0.041111988727219946,0.05831414565961924
0.2255,-0.0594556523300107,-0.07355451493253942,0.07355451493253942,0.04111219702770004,0.05830393834712605
0.226,-0.0706676554590817,-0.08540273059469769,0.08540273059469769,0.04111320917812502,0.05828582320071496
0.2265,-0.0702215843472792,-0.08401282087061501,0.08401282087061501,0.04111502294767059,0.05827294571251968
0.227,-0.0519360290626637,-0.06461913808101083,0.06461913808101083,0.041117636036194914,0.05827221216948924
0.2275,-0.0213529936851687,-0.03455334710478937,0.03455334710478937,0.041121046075049524,0.0582610496962916
0.228,0.0048299644695441,-0.009716380430747856,0.009716380430747856,0.04112525062789508,0.058188467254083
0.2285,0.0126938019275665,-0.0017534752343076158,0.0017534752343076158,0.04113024719152206,0.05803243064998761
0.229,0.0045848784166008,-0.008275317881934446,0.008275317881934446,0.04113603319667631,0.05784197768195114
0.2295,-0.0053992961343702,-0.017462895044118232,0.017462895044118232,0.04114260600888947,0.0576901554808037
0.23,-0.0088914979788112,-0.021905795227616966,0.021905795227616966,0.04114996292931417,0.05763354454322024
0.2305,-0.0105354801733914,-0.024732522572217978,0.024732522572217978,0.04115810119556383,0.057665823629523785
0.231,-0.0168552659438067,-0.030928990224303107,0.030928990224303107,0.04116701798255678,0.057690163986126704
0.2315,-0.0237767763382659,-0.03655915730673645,0.03655915730673645,0.041176710403364285,0.057671354875902456
0.232,-0.0202340610799805,-0.03195304062060167,0.03195304062060167,0.04118717551006204,0.0576830733526227
0.2325,-0.0040036272924614,-0.016168350357623075,0.016168350357623075,0.04119841029458457,0.057732040631619984
0.233,0.0105011107908223,-0.003190229318302762,0.003190229318302762,0.041210411689582,0.05770067448604387
0.2335,0.0056816546063711,-0.008567677462434004,0.008567677462434004,0.04122317656927858,0.057465102320092235
0.234,-0.0171306898729772,-0.029950087909567154,0.029950087909567154,0.04123670175033236,0.057129263616763896
0.2345,-0.0338971286969761,-0.04509086751843942,0.04509086751843942,0.0412509839926951,0.057020144927782374
0.235,-0.0202011270502118,-0.03188823268122647,0.03188823268122647,0.041266020000471755,0.057192864768386316
0.2355,0.0242908454819372,0.010682058525205596,0.010682058525205596,0.041281806422778476,0.05727884333318735
0.236,0.0765508707157779,0.06251562451306943,0.06251562451306943,0.04129833985459817,0.05709648787152384
0.2365,0.1127829663059178,0.10047013299702909,0.10047013299702909,0.041315616837632664,0.056952748276128756
0.237,0.124800309210477,0.11362345164673934,0.11362345164673934,0.04133363386115025,0.057064039511598774
0.2375,0.115715287155288,0.10343895123101987,0.10343895123101987,0.04135238736282777,0.05716953193712416
0.238,0.0900115818640097,0.076414258839972,0.076414258839972,0.04137187372958615,0.057073927339314295
0.2385,0.054058044391481,0.04092498380234656,0.04092498380234656,0.04139208929841859,0.05697967661938511
0.239,0.0198596778459928,0.00786471409459828,0.00786471409459828,0.04141303035721079,0.0569715796451695
0.2395,-0.0003397798433488,-0.012246826997826662,0.012246826997826662,0.041434693145552835,0.05690716968674608
0.24,-0.0029334995980765,-0.01553216893677602,0.01553216893677602,0.04145707385554223,0.056865705669264424
0.2405,0.0067903044580989,-0.006339467964798957,0.006339467964798957,0.04148016863257794,0.05693757365054358
0.241,0.0221603613972909,0.009001959334618604,0.009001959334618604,0.041503973576144916,0.05695396410970888
0.2415,0.0411284846222013,0.028532802716865917,0.028532802716865917,0.04152848474058876,0.05689438964050609
0.242,0.0643965831617076,0.052367981924009765,0.052367981924009765,0.04155369813587985,0.0569057678331129
0.2425,0.0866997541412405,0.07426708875594215,0.07426708875594215,0.041579609728366274,0.05692528424781197
0.243,0.0924058493151921,0.0790863735073708,0.0790863735073708,0.04160621544151492,0.05684066646671936
0.2435,0.0664583988760129,0.05313754666264561,0.05313754666264561,0.04163351115663975,0.056724209227006335
0.244,0.0124119681327929,-0.0004145152531548485,0.0004145152531548485,0.04166149271361665,0.05667666219664621
0.2445,-0.0440245987246458,-0.057128281210740706,0.057128281210740706,0.04169015591158414,0.056735153324248035
0.245,-0.0724760934883424,-0.08585743007730637,0.08585743007730637,0.04171949650962921,0.05690675375429186
0.2455,-0.0608063475809815,-0.07328482670776641,0.07328482670776641,0.04174951022745783,0.0571267720755485
0.246,-0.02587411830434,-0.037961423729597654,0.037961423729597654,0.041780192746049404,0.05725711715183615
0.2465,-0.0041850451618019,-0.01816090353881997,0.01816090353881997,0.04181153970829477,0.05721536811512125
0.247,-0.0234847444218651,-0.039153530784034704,0.039153530784034704,0.041843546719617125,0.05712613421705581
0.2475,-0.0742646603840853,-0.08827097015779704,0.08827097015779704,0.04187620934857557,0.05723502334180606
0.248,-0.1137688127222467,-0.1248865600276369,0.1248865600276369,0.041909523127450866,0.05756323251768682
0.2485,-0.1074997988074581,-0.11909863864880219,0.11909863864880219,0.041943483552813,0.05785468148088187
0.249,-0.0641592844153578,-0.07934199858477786,0.07934199858477786,0.04197808608607018,0.057970961010850176
0.2495,-0.0214639850342382,-0.03843989193316892,0.03843989193316892,0.04201332615399926,0.05799616082264242
0.25,-0.0008320068977048,-0.0154201782756717,0.0154201782756717,0.04204919914925747,0.05798208575290846
0.2505,0.0117007782383437,0.0003155478397874681,0.0003155478397874681,0.04208570043087567,0.057947685196846704
0.251,0.0363050676408874,0.024574374034742226,0.024574374034742226,0.04212282532473357,0.05793547212652923
0.2515,0.0633111176585524,0.048130718400446144,0.048130718400446144,0.0421605691240171,0.05793463494758223
0.252,0.060713589539054,0.04336331191505542,0.04336331191505542,0.042198927089658424,0.057950935307871654
0.2525,0.0180061264189223,0.0022423450133459005,0.0022423450133459005,0.04223789445075875,0.05802767106086222
0.253,-0.0306388667299512,-0.04330880030207891,0.04330880030207891,0.04227746640499406,0.05814211236606635
0.2535,-0.0374279972060748,-0.049299455900038924,0.049299455900038924,0.04231763811900403,0.058243441411745416
0.254,0.0072168322399315,-0.007084985060440776,0.007084985060440776,0.04235840472876407,0.05832252894888558
0.2545,0.062573371728052,0.04535231568720104,0.04535231568720104,0.04239976133994078,0.05836167921071307
0.255,0.0809605310082816,0.06370506765419777,0.06370506765419777,0.04244170302823049,0.05832576363594869
0.2555,0.0586925548750077,0.044418682619236025,0.044418682619236025,0.04248422483968131,0.05824159745769492
0.256,0.0374678755280175,0.025443344304682772,0.025443344304682772,0.04252732179099826,0.05818242609808547
0.2565,0.0548646062073315,0.04117962924713474,0.04117962924713474,0.042570988869831655,0.058162459897136434
0.257,0.1009740168534588,0.08381724846424936,0.08381724846424936,0.04261522103504863,0.058130197205323156
0.2575,0.1305244737644013,0.11292080718004921,0.11292080718004921,0.042660013216987806,0.05807345532254074
0.258,0.1131650487248224,0.09845511797370145,0.09845511797370145,0.04270536031769706,0.058061575017679196
0.2585,0.0615302612464267,0.048448557185399456,0.048448557185399456,0.04275125721115445,0.058077378399655655
0.259,0.0114264494931109,-0.0033549653555181892,0.0033549653555181892,0.04279769874347245,0.057918999329113936
0.2595,-0.0122594124323386,-0.028936629463823978,0.028936629463823978,0.04284467973308581,0.05755804461870046
0.26,-0.0068579876410921,-0.023102901631175895,0.023102901631175895,0.04289219497092343,0.05735458979977249
0.2605,0.0170673013859821,0.002126258636985609,0.002126258636985609,0.04294023922056475,0.05751636370144603
0.261,0.0451650609991887,0.030423372743872586,0.030423372743872586,0.042988807218381095,0.05773852713868495
0.2615,0.0635072653271082,0.04813538063265027,0.04813538063265027,0.043037893673662196,0.057720872509826736
0.262,0.0624100783477562,0.046563407174568194,0.046563407174568194,0.043087493268728405,0.05759859360863228
0.2625,0.0408033291013286,0.02487871506393706,0.02487871506393706,0.043137600659028635,0.05763959713585292
0.263,0.0075049028552022,-0.008037724590916756,0.008037724590916756,0.043188210473224214,0.05779998462606598
0.2635,-0.0231518518547184,-0.0380397835376764,0.0380397835376764,0.04323931731325879,0.05783467305117089
0.264,-0.0400906273978701,-0.05500358913364962,0.05500358913364962,0.04329091575441441,0.05771988303378078
0.2645,-0.0421957566232634,-0.05811454889392623,0.05811454889392623,0.0433430003453537,0.05766147527755673
0.265,-0.0352694157998519,-0.05170119554701065,0.05170119554701065,0.04339556560814827,0.05773316795245321
0.2655,-0.0222715067715396,-0.037684892926732425,0.037684892926732425,0.04344860603829326,0.0577769458527892
0.266,-0.0009750640479209,-0.01531386017561279,0.01531386017561279,0.04350211610470791,0.05769639531048937
0.2665,0.0260244838422876,0.011070302894373434,0.011070302894373434,0.04355609024972236,0.05762431596115034
0.267,0.043873031300407,0.02764577953798598,0.02764577953798598,0.043610522889050526,0.05766361442926118
0.2675,0.0349599229099076,0.018940737998413584,0.018940737998413584,0.043665408411749006,0.0576976920557595
0.268,-0.0033806969545348,-0.018177162773287514,0.018177162773287514,0.04372074118016201,0.05764386402787163
0.2685,-0.0537420718826647,-0.06842069911538518,0.06842069911538518,0.043776515529852116,0.05767135043331026
0.269,-0.0902253034721404,-0.10579077971861116,0.10579077971861116,0.04383272576951655,0.05792776865835938
0.2695,-0.0926598378585099,-0.10830939754918831,0.10830939754918831,0.043889366180888706,0.05819575155340966
0.27,-0.0548496775267598,-0.06981886650554227,0.06981886650554227,0.04394643101862456,0.05825132648013498
0.2705,0.0111536315838527,-0.0037384323691223922,0.0037384323691223922,0.044003914510173804,0.05826492987917058
0.271,0.0773629034800592,0.062172390863078714,0.062172390863078714,0.04406181085563546,0.05833193147013007
0.2715,0.1140014016000941,0.09902777601196636,0.09902777601196636,0.0441201142275981,0.058305551578712825
0.272,0.108287876433836,0.09335369264120554,0.09335369264120554,0.04417881877096473,0.058254596847629084
0.2725,0.0731097702373336,0.05746535744495128,0.05746535744495128,0.0442379186027624,0.058275659659721764
0.273,0.039411624216587,0.023766460864271866,0.023766460864271866,0.0442974078119369,0.058272854849193895
0.2735,0.0357806590846766,0.021650292808074914,0.021650292808074914,0.04435728045913282,0.05822733696546298
0.274,0.0644664549176758,0.05116851051086922,0.05116851051086922,0.04441753057645935,0.05813683667157059
0.2745,0.092382764928156,0.07742764301091169,0.07742764301091169,0.04447815216724234,0.0579849465846341
0.275,0.0747552864457298,0.057853854986222496,0.057853854986222496,0.044539139205763106,0.05791578403304255
0.2755,-0.0006150741211653,-0.016664534813455603,0.016664534813455603,0.0446004856369844,0.057993816635083725
0.276,-0.092530242866329,-0.10598582022303407,0.10598582022303407,0.04466218537626408,0.058127477106692256
0.2765,-0.1375250672783869,-0.15031387592858955,0.15031387592858955,0.044724232309057005,0.05829952696555565
0.277,-0.1056468588873502,-0.1204320989655418,0.1204320989655418,0.04478662029060561,0.05839551255914262
0.2775,-0.0252125026712845,-0.04165397511062492,0.04165397511062492,0.04484934314562007,0.05833091102275486
0.278,0.0448234968444274,0.029180246586992926,0.029180246586992926,0.04491239466794864,0.058337220982020564
0.2785,0.0630899874447101,0.04917370266552477,0.04917370266552477,0.04497576862023934,0.058471369786256756
0.279,0.0307331135270479,0.017020710691601115,0.017020710691601115,0.04503945873359417,0.05851942896284
0.2795,-0.0189284735174961,-0.03385624294765577,0.03385624294765577,0.045103458707217235,0.058486237759360585
0.28,-0.0471514288176251,-0.0627595875443371,0.0627595875443371,0.045167762208057974,0.05850841310225681
0.2805,-0.0325479480370948,-0.047439341214454644,0.047439341214454644,0.0452323628704509,0.05865534468809454
0.281,0.0181615530598243,0.0043234157292172115,0.0043234157292172115,0.04529725429575312,0.058895721750898807
0.2815,0.0742918937624054,0.060307663101898654,0.060307663101898654,0.045362430051980804,0.05906790462811915
0.282,0.1003994222853236,0.08488300620456891,0.08488300620456891,0.04542788367344589,0.059120570877803265
0.2825,0.0814883875246766,0.06501555529813306,0.06501555529813306,0.04549360866039423,0.05913667212476907
0.283,0.0359186165396029,0.020969563449363866,0.020969563449363866,0.045559598478646386,0.059103533013877746
0.2835,0.0007563956261618,-0.011888033257276423,0.011888033257276423,0.04562584655924234,0.05903186314642646
0.284,-0.0031494007798137,-0.016400297429221757,0.016400297429221757,0.045692346298091345,0.05901595786524496
0.2845,0.0086690346745648,-0.007767236174960376,0.007767236174960376,0.045759091055628205,0.05907727265239273
0.285,0.0063633691704879,-0.011275556861248898,0.011275556861248898,0.04582607415647724,0.05924500769421446
0.2855,-0.0134471229928954,-0.02852746311535569,0.02852746311535569,0.04589328888912519,0.059554807114508175
0.286,-0.0212873499707369,-0.03375192275579322,0.03375192275579322,0.045960728505603926,0.059888278426172024
0.2865,0.0060221829851218,-0.007203927461540896,0.007203927461540896,0.04602838622118414,0.060092522373394894
0.287,0.0501765493682615,0.03413683328090668,0.03413683328090668,0.046096255214080624,0.06015668878287902
0.2875,0.0659145457313077,0.04843061346873082,0.04843061346873082,0.046164328625170004,0.060156222612430935
0.288,0.029871308099658,0.01360309258562651,0.01360309258562651,0.04623259955772159,0.06015236154632026
0.2885,-0.0314259245567392,-0.04532974293447235,0.04532974293447235,0.04630106107714189,0.06017167952753955
0.289,-0.0653629978955612,-0.0783500830026011,0.0783500830026011,0.046369706210733316,0.0602031698359333
0.2895,-0.0437827978368851,-0.05853132113712592,0.05853132113712592,0.046438527947467605,0.06021068760195959
0.29,0.0131106004739427,-0.00423041481658586,0.00423041481658586,0.04650751923777432,0.06019260331612817
0.2905,0.0633840967589226,0.045766376095405396,0.045766376095405396,0.04657667299334494,0.06019110580735858
0.291,0.0873580735733558,0.07220398455119428,0.07220398455119428,0.04664598208695298,0.06021423895533461
0.2915,0.0980794942788758,0.08501369919053661,0.08501369919053661,0.0467154393522906,0.06021959608673865
0.292,0.1113967724376829,0.09723966791362294,0.09723966791362294,0.046785037583822166,0.06020262016071561
0.2925,0.1183047936428174,0.10109186073220944,0.10109186073220944,0.046854769536655246,0.060201781778611865
0.293,0.0961542811281407,0.07781755910496987,0.07781755910496987,0.0469246279264295,0.06015335396670201
0.2935,0.0432192358409345,0.02715857688217908,0.02715857688217908,0.046994605429224276,0.05992485700002336
0.294,-0.0105957892983724,-0.024073243249456373,0.024073243249456373,0.04706469468148555,0.05957379172558848
0.2945,-0.0337193625289419,-0.04784027507425836,0.04784027507425836,0.04713488827997327,0.059315546296515045
0.295,-0.026712382049365,-0.04387350189338416,0.04387350189338416,0.04720517878172999,0.05923079272860979
0.2955,-0.0174120477288601,-0.036013657125902584,0.036013657125902584,0.047275558704072025,0.0592289739095618
0.296,-0.0246760997686022,-0.04138464228915918,0.04138464228915918,0.04734602052460389,0.05921934372176741
0.2965,-0.0371814031779029,-0.051387186409213,0.051387186409213,0.04741655668125711,0.059191211747409815
0.297,-0.0323571617951241,-0.04684028603779501,0.04684028603779501,0.047487159572354415,0.05917003936581578
0.2975,-0.0087441548463677,-0.025829355484016103,0.025829355484016103,0.04755782155670008,0.059178207022690936
0.298,0.0101441784363402,-0.00833628948136752,0.00833628948136752,0.0476285349536975,0.059247972598421426
0.2985,0.0042510303197689,-0.012746187683944914,0.012746187683944914,0.04769929204349472,0.05936420756749048
0.299,-0.0189518417984744,-0.033987417424542726,0.033987417424542726,0.047770085067158935,0.05944767931388244
0.2995,-0.0333178898260389,-0.0487288261460628,0.0487288261460628,0.047840906226880614,0.05947990419641925
0.3,-0.022174912984886,-0.0395092141981782,0.0395092141981782,0.04791174768620802,0.05950899021897621
0.3005,0.0074465358566275,-0.010485640374329742,0.010485640374329742,0.04798260157031263,0.05954764084116391
0.301,0.0350180608286763,0.018399049516096416,0.018399049516096416,0.04805345996628611,0.0595801212500173
0.3015,0.0441442751201453,0.028425236920857418,0.028425236920857418,0.04812431492346927,0.05959445046858223
0.302,0.0313346121656025,0.014611541331608956,0.014611541331608956,0.04819515845381334,0.05958663138337771
0.3025,0.0063745086790039,-0.011586579094229676,0.011586579094229676,0.04826598253227409,0.05958086531357053
0.303,-0.0104943577314813,-0.027896815908246657,0.027896815908246657,0.04833677909723877,0.05959501311989043
0.3035,0.001961811914919,-0.014141444849403627,0.014141444849403627,0.04840754005098623,0.05959467531958993
0.304,0.0481401330047477,0.03184711716278896,0.03184711716278896,0.048478257260180124,0.059546670506778955
0.3045,0.1047447436618975,0.08721580506364797,0.08721580506364797,0.048548922556395126,0.059491455965821415
0.305,0.1338844777240529,0.11605369247990682,0.11605369247990682,0.048619527736676,0.059527195710151096
0.3055,0.1116738411720821,0.094525063750865,0.094525063750865,0.048690064564129235,0.05965773685104333
0.306,0.0462554401294555,0.029392163743635295,0.029392163743635295,0.04876052476854704,0.059738751877646636
0.3065,-0.0284819962847736,-0.04565921913067994,0.04565921913067994,0.048830900047063544,0.05972701543237081
0.307,-0.0759222043169155,-0.0931526295399378,0.0931526295399378,0.048901182064843174,0.05972277108846478
0.3075,-0.0797857772674016,-0.09671637543673675,0.09671637543673675,0.04897136245580122,0.05973518023430151
0.308,-0.0526153811931772,-0.06964700961118743,0.06964700961118743,0.04904143282335678,0.059714822594857976
0.3085,-0.0237827701388028,-0.0414348479302866,0.0414348479302866,0.04911138474121826,0.05966406382087266
0.309,-0.0149564530988021,-0.03288005562342998,0.03288005562342998,0.04918120975420169,0.05960742596168329
0.3095,-0.0225065159266447,-0.03985008776237078,0.03985008776237078,0.04925089937908228,0.05957121551438905
0.31,-0.0231023737279917,-0.0397203352137898,0.0397203352137898,0.04932044510547967,0.05955556591006574
0.3105,0.0014239719691207,-0.01524033743261715,0.01524033743261715,0.049389838396777255,0.05952784657921161
0.311,0.0434503362213819,0.026102379780884095,0.026102379780884095,0.0494590706910761,0.05943454299148027
0.3115,0.0741326044872213,0.05632256210463556,0.05632256210463556,0.04952813340218377,0.05929862539210162
0.312,0.0699351172662895,0.052257978644222165,0.052257978644222165,0.049597017920638434,0.059306966809138564
0.3125,0.036248929801609,0.018949122518253286,0.018949122518253286,0.04966571561476853,0.05952691040997495
0.313,0.0054401495535888,-0.011544860711065159,0.011544860711065159,0.049734217831788094,0.05971406448016858
0.3135,0.0096666307601608,-0.007020849656114278,0.007020849656114278,0.04980251589892808,0.05973520463696085
0.314,0.0513839500399981,0.034808643856776136,0.034808643856776136,0.04987060112460359,0.05974942810197889
0.3145,0.0976276541439391,0.08049704917149114,0.08049704917149114,0.04993846479961721,0.059787224464786536
0.315,0.1054149034139788,0.08730307482720673,0.08730307482720673,0.05000609819839829,0.0597452664349273
0.3155,0.0590680140837692,0.040897507667864014,0.040897507667864014,0.050073492580278135,0.05970666264927948
0.316,-0.0130693004784311,-0.029682480175998623,0.029682480175998623,0.05014063919080075,0.05976071807032287
0.3165,-0.060360746765952,-0.07548837941537057,0.07548837941537057,0.05020752926306915,0.05984145426967137
0.317,-0.0528340007914634,-0.06887356498477777,0.06887356498477777,0.05027415401912704,0.05990283990234744
0.3175,-0.0049351605915574,-0.02343835239322891,0.02343835239322891,0.050340504671375755,0.05996064447689263
0.318,0.0435230963657691,0.02464676169819687,0.02464676169819687,0.050406572424026456,0.06006881108812704
0.3185,0.0673405034354027,0.05106737674312166,0.05106737674312166,0.05047234847458747,0.0601797426298383
0.319,0.0717813930362874,0.057257828648375725,0.057257828648375725,0.05053782401538669,0.06012687415647761
0.3195,0.0716505721648482,0.055441558339896294,0.055441558339896294,0.05060299023512898,0.06007193712001997
0.32,0.06813405757371,0.04967287464352295,0.04967287464352295,0.05066783832048844,0.060243861901702604
0.3205,0.0536941200747692,0.035878038975865875,0.035878038975865875,0.05073235945773542,0.06028103211974842
0.321,0.0304842407301105,0.014835559345647523,0.014835559345647523,0.05079654483439804,0.05993277995084107
0.3215,0.0122417412965313,-0.003101449333391848,0.003101449333391848,0.05086038564095821,0.05957427905221566
0.322,0.0092393521592538,-0.0076295280244543,0.0076295280244543,0.0509238730725818,0.05944122019988299
0.3225,0.0186130061996005,0.0010635539667620871,0.0010635539667620871,0.05098699833088285,0.05946354106556037
0.323,0.0294663301803083,0.012916910249855659,0.012916910249855659,0.05104975262572131,0.05957720985262571
0.3235,0.0321470666522071,0.016533285355372136,0.016533285355372136,0.05111212717703404,0.059652087678283
0.324,0.0225104979316034,0.0064636380119413896,0.0064636380119413896,0.0511741132166981,0.05963575791543289
0.3245,0.003132689433253,-0.013957962737108285,0.013957962737108285,0.051235701990425764,0.059580722214900864
0.325,-0.0161879075733534,-0.03334653795870321,0.03334653795870321,0.05129688475969015,0.059446354750030975
0.3255,-0.0220882762766272,-0.03803079385443699,0.03803079385443699,0.051357652803680355,0.05926556716206395
0.326,-0.007897451133757,-0.023069845595419674,0.023069845595419674,0.051417997421284875,0.05919359918746535
0.3265,0.015967149932331,-0.0002875355269478285,0.0002875355269478285,0.05147790993310189,0.059206388664042875
0.327,0.0253849543825767,0.007802095724317278,0.007802095724317278,0.05153738168347498,0.05917465143651344
0.3275,0.0037671469649235,-0.013127957999819268,0.013127957999819268,0.05159640404255266,0.05913873804206159
0.328,-0.0389645713116721,-0.05434560910608722,0.05434560910608722,0.05165496840837007,0.05918927963923409
0.3285,-0.072582447525195,-0.08821658528549763,0.08821658528549763,0.05171306620895096,0.059265426980100816
0.329,-0.0710046226525867,-0.08797076516264796,0.08797076516264796,0.051770688904428125,0.05926231759896609
0.3295,-0.0292674789470607,-0.04623487677392504,0.04623487677392504,0.05182782798918007,0.059247783255083036
0.33,0.0359522381052709,0.019960641914150028,0.019960641914150028,0.051884474993982126,0.059330572001732224
0.3305,0.0936846603815674,0.07769458624763034,0.07769458624763034,0.05194062148816981,0.05943156071176019
0.331,0.1109098656665858,0.09422629826514972,0.09422629826514972,0.05199625908181255,0.05945460848780673
0.3315,0.0711793344372471,0.0545029207647789,0.0545029207647789,0.05205137942789596,0.05941109480376745
0.332,-0.0107801454770862,-0.027226590082900286,0.027226590082900286,0.052105974224510576,0.05934935165702437
0.3325,-0.0932075958100226,-0.11005171045922266,0.11005171045922266,0.05216003521704539,0.05933674087120874
0.333,-0.1296075501852442,-0.1465514632719519,0.1465514632719519,0.052213554200384184,0.05935121188744839
0.3335,-0.0962227566955253,-0.11237414065904772,0.11237414065904772,0.052266523021103115,0.05931747853931225
0.334,-0.0109524144280412,-0.026734604827133777,0.026734604827133777,0.05231893357966772,0.05926248287802433
0.3345,0.0713903926557654,0.05463484806264869,0.05463484806264869,0.05237077783262792,0.05923113285001905
0.335,0.0942460774396775,0.07620103337582611,0.07620103337582611,0.052422047794809565,0.05922161185051687
0.3355,0.0436658236347427,0.025599739529836046,0.025599739529836046,0.052472735541501433,0.05922930116631527
0.336,-0.0364202925401191,-0.05296255738485308,0.05296255738485308,0.05252283321063652,0.05927022646765257
0.3365,-0.0760090253510891,-0.0912676639207528,0.0912676639207528,0.05257233300496646,0.059382778663537784
0.337,-0.0355306108994759,-0.05178674402202727,0.05178674402202727,0.05262122719422801,0.05951251102921853
0.3375,0.0605838749783941,0.04204649247962204,0.04204649247962204,0.052669508117300555,0.05954550270369905
0.338,0.14456200921743,0.12569737063961256,0.12569737063961256,0.052717168184353506,0.05952334804178424
0.3385,0.1606914982724141,0.14383513079689111,0.14383513079689111,0.05276419987898253,0.0595666437794784
0.339,0.1035158701648185,0.08761913796450474,0.08761913796450474,0.05281059576033371,0.059664325958746905
0.3395,0.0115118007191358,-0.00597077337404834,0.00597077337404834,0.05285634846521468,0.05973308811510071
0.34,-0.0641676534742178,-0.08288049029480479,0.08288049029480479,0.05290145071019211,0.059751985088210675
0.3405,-0.0861140077773842,-0.10374099338664429,0.10374099338664429,0.0529458952936749,0.0597522656590024
0.341,-0.0454080570143259,-0.06205783531845753,0.06205783531845753,0.05298967509798264,0.05975394485305999
0.3415,0.0333679563122657,0.01559039035777305,0.01559039035777305,0.053032783091399104,0.059750201666210534
0.342,0.1044164647340151,0.08557183704810761,0.08557183704810761,0.053075212330210196,0.059734119203392486
0.3425,0.1296007561077659,0.11168669111168635,0.11168669111168635,0.053116955960726395,0.05972990874416195
0.343,0.1015481382799412,0.08457733986939037,0.08457733986939037,0.0531580072212893,0.05979508562807997
0.3435,0.043266707239999,0.025301198129435175,0.025301198129435175,0.05319835944426217,0.05992150826341059
0.344,-0.0080589604681959,-0.02724148843074338,0.02724148843074338,0.05323800605800436,0.05999603877639198
0.3445,-0.0194319733096894,-0.03789719396859978,0.03789719396859978,0.05327694058882971,0.059997801269483085
0.345,0.020062311780799,0.003104002240862637,0.003104002240862637,0.05331515666294881,0.06003049809767815
0.3455,0.0871030992450993,0.06992502035212644,0.06992502035212644,0.05335264800839532,0.06009992397434859
0.346,0.1330085967631361,0.11391730405252015,0.11391730405252015,0.05338940845693622,0.060128360075228184
0.3465,0.1175647716677034,0.09748939431829534,0.09748939431829534,0.053425431945965884,0.06008115223905547
0.347,0.0434697341606029,0.024868767971406414,0.024868767971406414,0.053460712520384014,0.05996729616731691
0.3475,-0.0424380208360771,-0.05908371542472053,0.05908371542472053,0.05349524433445711,0.05986008278698593
0.348,-0.0869047213434882,-0.10404600574555423,0.10404600574555423,0.053529021653663675,0.0598296432192647
0.3485,-0.0725771138475871,-0.09203811032381834,0.09203811032381834,0.05356203885652301,0.05984412047847362
0.349,-0.0245098798827945,-0.044583617414807826,0.044583617414807826,0.05359429043640793,0.059845261556786565
0.3495,0.0201140829489799,0.0019053483059204169,0.0019053483059204169,0.053625771003341455,0.059823185991876526
0.35,0.0419812232550512,0.024806337302269367,0.024806337302269367,0.05365647528577771,0.05978581081316259
0.3505,0.0427788949730333,0.02417782565946711,0.02417782565946711,0.053686398132367474,0.05972938230787743
0.351,0.0319367704294986,0.012303231016877619,0.012303231016877619,0.05371553451370856,0.05964194470888437
0.3515,0.0172316870409163,-0.0010009038862519954,0.0010009038862519954,0.053743879524081224,0.05952304004621759
0.352,0.0018388094809311,-0.015237196791975348,0.015237196791975348,0.05377142838316885,0.059404494523486395
0.3525,-0.0159096215194618,-0.03466347715918502,0.03466347715918502,0.05379817643776367,0.059339793555720124
0.353,-0.0360732280134479,-0.05668176417753412,0.05668176417753412,0.05382411916345746,0.059338917153808006
0.3535,-0.0468675783125114,-0.06584704744116975,0.06584704744116975,0.05384925216631684,0.059350908751784476
0.354,-0.0293207261899483,-0.04535450200406285,0.04535450200406285,0.05387357118454277,0.05935134903318275
0.3545,0.0178711263997292,0.0011265287369102844,0.0011265287369102844,0.0538970720901137,0.05935194636299958
0.355,0.0637142047194964,0.04332644902639552,0.04332644902639552,0.05391975089041181,0.059348123455601816
0.3555,0.0694091175297796,0.04822271190165536,0.04822271190165536,0.05394160372983186,0.05940958530612118
0.356,0.0296656925655466,0.011980883575851212,0.011980883575851212,0.05396262689137186,0.05965323469199388
0.3565,-0.0205483081519109,-0.0358956805850528,0.0358956805850528,0.05398281679820502,0.059966067318068444
0.357,-0.0431606919966907,-0.06085948308070263,0.06085948308070263,0.054002170015232116,0.0601102118947749
0.3575,-0.0304294684211021,-0.051122644404180635,0.051122644404180635,0.054020683250613453,0.06011233677914338
0.358,0.0025155442499527,-0.01722801700100384,0.01722801700100384,0.05403835335727948,0.06010810848359439
0.3585,0.0434366383396089,0.02644026308846415,0.02644026308846415,0.05405517733441911,0.06011369806905154
0.359,0.0868861471144857,0.07015486885804192,0.07015486885804192,0.05407115232894468,0.06019736151920588
0.3595,0.1195312478288284,0.10120568636297089,0.10120568636297089,0.054086275636932475,0.06034763507662494
0.36,0.1188063872354044,0.0999819252913368,0.0999819252913368,0.05410054470503775,0.06040124373579391
0.3605,0.0725278770968683,0.05417113369994944,0.05417113369994944,0.05411395713188304,0.06038702003465576
0.361,-0.0027779296466761,-0.021230552142411527,0.021230552142411527,0.0541265106694187,0.06040161876273834
0.3615,-0.0649953984964088,-0.08338356299327485,0.08338356299327485,0.05413820322425453,0.06035983308563854
0.362,-0.0726794264622059,-0.08982857411846928,0.08982857411846928,0.054149032858961756,0.06020535123098557
0.3625,-0.0190720847440233,-0.03551293422611299,0.03551293422611299,0.05415899779334421,0.06001905168559292
0.363,0.0538776064297032,0.03584718304097542,0.03584718304097542,0.05416809640567801,0.0599571805637865
0.3635,0.0829303710318126,0.06301278558610929,0.06301278558610929,0.054176327233918804,0.060104275582109165
0.364,0.0379033877327061,0.01883297863453933,0.01883297863453933,0.05418368897687576,0.060302422382690735
0.3645,-0.0476469471594412,-0.06425083784579355,0.06425083784579355,0.054190180495351556,0.060377941447422166
0.365,-0.1049494243310532,-0.12096460632584535,0.12096460632584535,0.05419580081324734,0.06037681811105733
0.3655,-0.0913206464541384,-0.10890850482459603,0.10890850482459603,0.05420054911863204,0.06038242519373903
0.366,-0.0230149655285509,-0.04178478970393108,0.04178478970393108,0.05420442476477495,0.060391664278035495
0.3665,0.046891047016124,0.028269585029664222,0.028269585029664222,0.05420742727114093,0.06039285419097025
0.367,0.0766785899713981,0.05862457310849037,0.05862457310849037,0.05420955632434739,0.06038091591035033
0.3675,0.0659854390508854,0.048662769352879005,0.048662769352879005,0.05421081177908253,0.06034213597817272
0.368,0.047527920082788,0.030983703277483017,0.030983703277483017,0.05421119365898425,0.06026692828726547
0.3685,0.0529361270968149,0.036030691687378366,0.036030691687378366,0.054210702157478995,0.06017737088856544
0.369,0.0847706127967423,0.06617270038302156,0.06617270038302156,0.05420933763858018,0.060131534429901434
0.3695,0.1192188258433333,0.09987485571936236,0.09987485571936236,0.054207100637645285,0.06014407519931561
0.37,0.1315778271149803,0.11399579893280759,0.11399579893280759,0.05420399186209112,0.060154802051739995
0.3705,0.113836118538383,0.09821825522500091,0.09821825522500091,0.054200012192066445,0.0601323474380551
0.371,0.0696084068785736,0.052967484188330013,0.052967484188330013,0.054195162681081335,0.06010589724448195
0.3715,0.0044570108263416,-0.014998548680784568,0.014998548680784568,0.0541894445565928,0.06009022600425684
0.372,-0.0685913243894368,-0.08836625964357356,0.08836625964357356,0.05418285922054623,0.0600890396594188
0.3725,-0.1208576599873619,-0.13772861311467277,0.13772861311467277,0.05417540824987235,0.06008123689718555
0.373,-0.1231571987789692,-0.1381946775330531,0.1381946775330531,0.054167093396939585,0.05996109921561098
0.3735,-0.0766244545670147,-0.09376663190354431,0.09376663190354431,0.05415791658996138,0.05970060078538497
0.374,-0.0192073135470426,-0.039382678623884435,0.039382678623884435,0.05414787993335871,0.059466778375432065
0.3745,0.0087422051919199,-0.010982701686994096,0.010982701686994096,0.054136985708077685,0.05937472305430796
0.375,0.0034617897979239,-0.013140805397163318,0.013140805397163318,0.05412523637186262,0.05937248490431824
0.3755,-0.0041529580568036,-0.0196737601649931,0.0196737601649931,0.05411263455948497,0.05939373028553214
0.376,0.0129974684032911,-0.004862973741504847,0.004862973741504847,0.05409918308292861,0.059409482054828655
0.3765,0.0508369085608865,0.030985857530706748,0.030985857530706748,0.05408488493153159,0.05940216718605907
0.377,0.0857235950032407,0.06686414120758606,0.06686414120758606,0.054069743272084796,0.059363331992013504
0.3775,0.1019398480310202,0.08478945044162237,0.08478945044162237,0.05405376144888745,0.059332156077928064
0.378,0.1005175920059257,0.0831884181198626,0.0831884181198626,0.05403694298375941,0.05933277486292983
0.3785,0.0884701433605902,0.07010389157485893,0.07010389157485893,0.054019291576010285,0.059306214917265586
0.379,0.0690954976517103,0.05051840951445499,0.05051840951445499,0.054000811102365105,0.05926706105490512
0.3795,0.0421071519135533,0.023642345741462272,0.023642345741462272,0.05398150561684668,0.05926998195441982
0.38,0.0088598379051653,-0.009743365456843817,0.009743365456843817,0.053961379350614486,0.05926631245416995
0.3805,-0.0227229231309206,-0.041104116740564176,0.041104116740564176,0.053940436711760395,0.05925438114448551
0.381,-0.0390933106002084,-0.057102877769354715,0.057102877769354715,0.05391868228506102,0.059283591423493605
0.3815,-0.0304488868332936,-0.04895916223641382,0.04895916223641382,0.05389612083168687,0.059344382956985416
0.382,-0.0001273127217305,-0.01946050531493696,0.01946050531493696,0.053872757288868076,0.05941748697707385
0.3825,0.0365757138308165,0.017557332233950163,0.017557332233950163,0.05384859676951661,0.05942793089184306
0.383,0.0613725150811484,0.04324444602477231,0.04324444602477231,0.05382364456180472,0.05931392352755659
0.3835,0.0597014461031861,0.04125732164397616,0.04125732164397616,0.05379790612869935,0.059183329272593385
0.384,0.0251890835770021,0.0056055261885059205,0.0056055261885059205,0.053771387107452204,0.05914380961742014
0.3845,-0.032926864619278,-0.05258912189454284,0.05258912189454284,0.05374409330904495,0.05915823424331751
0.385,-0.086568335842839,-0.1053845916673979,0.1053845916673979,0.05371603071758914,0.05918579801945642
0.3855,-0.1020820764229741,-0.12081232138484252,0.12081232138484252,0.0536872054896802,0.059245497069983444
0.386,-0.0640885363162299,-0.08346156393494952,0.08346156393494952,0.05365762395370487,0.05933122025907422
0.3865,0.0112172576518911,-0.00819829157086583,0.00819829157086583,0.05362729260910144,0.059379093125376536
0.387,0.0844614547642269,0.06537863373006769,0.06537863373006769,0.053596218125572415,0.05935242887890806
0.3875,0.1161557005778485,0.09655058594825869,0.09655058594825869,0.053564407342248994,0.059322028854727704
0.388,0.0904921193120986,0.0700566601561751,0.0700566601561751,0.053531867266807254,0.05935345975015914
0.3885,0.0263098079769231,0.006443369871804381,0.006443369871804381,0.05349860507453562,0.059386542068702475
0.389,-0.0344520292612726,-0.052862222377056095,0.052862222377056095,0.053464628107353376,0.05936378252254437
0.3895,-0.0563339672956067,-0.07494597565488072,0.07494597565488072,0.05342994387278006,0.05932768018826473
0.39,-0.0344428215839669,-0.05513810711142489,0.05513810711142489,0.05339456004285548,0.05931064076042882
0.3905,0.0093343832704448,-0.012262562031329458,0.012262562031329458,0.05335848445301016,0.05929734447920379
0.391,0.05014298723093,0.03032893570982169,0.03032893570982169,0.053321725100886036,0.05928883312273108
0.3915,0.0736878509236028,0.055776560114360475,0.055776560114360475,0.05328429014510704,0.05929624560384502
0.392,0.0698281929308339,0.0512377709740226,0.0512377709740226,0.053246187903999494,0.05931112938310044
0.3925,0.029440844392963,0.008364273573815318,0.008364273573815318,0.053207426854261754,0.05932026925439216
0.393,-0.0402482619502465,-0.06261592563429527,0.06261592563429527,0.053168015629582975,0.059330172302269266
0.3935,-0.1022923343992501,-0.12285240384874216,0.12285240384874216,0.0531279630192104,0.059329975020496035
0.394,-0.1077038727956259,-0.12509656081713158,0.12509656081713158,0.05308727796646475,0.05925128055089362
0.3945,-0.0402180517321891,-0.057404490962058755,0.057404490962058755,0.053045969567203345,0.05906349356771074
0.395,0.055807391025567,0.034813125578501976,0.034813125578501976,0.05300404706823039,0.05887302875613334
0.3955,0.106018133051145,0.08227350144919973,0.08227350144919973,0.05296151986565425,0.05880741386008389
0.396,0.0764252467308127,0.05524599153689146,0.05524599153689146,0.05291839750319145,0.05882053186271512
0.3965,0.0084605729843822,-0.008375970315091887,0.008375970315091887,0.05287468967041748,0.058755443353658565
0.397,-0.0250571841754657,-0.041945998101807,0.041945998101807,0.052830406200964214,0.05859789981215414
0.3975,0.0060268914630709,-0.014719444065730312,0.014719444065730312,0.052785557070663965,0.05847681357703414
0.398,0.0679163977948512,0.04529133870247454,0.04529133870247454,0.05274015239564019,0.05843010196573073
0.3985,0.1087462130350719,0.08820544444266963,0.08820544444266963,0.05269420243034469,0.05843512135540435
0.399,0.1109391123266354,0.09281506303950243,0.09281506303950243,0.05264771756554108,0.05860134685502667
0.3995,0.0968189009807142,0.07854649478762131,0.07854649478762131,0.05260070832623437,0.05897617126915699
0.4,0.0951103580684606,0.07538468017339034,0.07538468017339034,0.05255318536954638,0.05933962471641817
0.4005,0.1102684810842079,0.09003503075189256,0.09003503075189256,0.05250515948253689,0.05952509044290052
0.401,0.1208324466235069,0.1011458362129024,0.1011458362129024,0.052456641579970306,0.05955266554741677
0.4015,0.101251383466259,0.08206255232602813,0.08206255232602813,0.05240764270202804,0.05937168536768462
0.402,0.0455599411704676,0.026447924860356305,0.026447924860356305,0.05235817401196663,0.05903288846883093
0.4025,-0.0249440086536057,-0.04407504951055767,0.04407504951055767,0.05230824679372199,0.05882708840651089
0.403,-0.0740903380754429,-0.09320859152071222,0.09320859152071222,0.05225787244946005,0.058833303480482595
0.4035,-0.0738676300592743,-0.09293526031829932,0.09293526031829932,0.05220706249707437,0.05888676537030951
0.404,-0.0223497575943687,-0.041182206107783934,0.041182206107783934,0.05215582856763107,0.059000552245305544
0.4045,0.0547710988070938,0.03613847347162438,0.03613847347162438,0.052104182402761684,0.05923701396145862
0.405,0.1189661415021871,0.10009471833818528,0.10009471833818528,0.05205213585200456,0.05945804762535695
0.4055,0.1413382755254673,0.12216850384242953,0.12216850384242953,0.051999700870095325,0.05955869481163269
0.406,0.1200641035655552,0.1011692578185104,0.1011692578185104,0.051946889514207215,0.05960525067829123
0.4065,0.0795036457387804,0.06117641557441861,0.06117641557441861,0.05189371394114195,0.05962318391732798
0.407,0.0490150254838218,0.0309637615640438,0.0309637615640438,0.051840186404472105,0.05956987128356979
0.4075,0.0386417550383858,0.020524650578851646,0.020524650578851646,0.05178631925163593,0.05957439183469523
0.408,0.0327906337643269,0.014295114734635607,0.014295114734635607,0.051732124920985806,0.059813164678809955
0.4085,0.0065319908191728,-0.012482762719074697,0.012482762719074697,0.05167761593879146,0.06015430293457386
0.409,-0.0494224119864209,-0.06832358161980183,0.06832358161980183,0.05162280491619918,0.0603628244238443
0.4095,-0.1163663828331689,-0.1342479489098121,0.1342479489098121,0.05156770454614809,0.060425755297650874
0.41,-0.1604563387643628,-0.17758708117062738,0.17758708117062738,0.05151232760024439,0.060430018146998776
0.4105,-0.1602197416345271,-0.1779536882010997,0.1779536882010997,0.0514566869255946,0.060437425578656404
0.411,-0.1218909223587942,-0.1408793682264933,0.1408793682264933,0.0514007954415989,0.060494193839205505
0.4115,-0.0688179770113047,-0.0880715825332131,0.0880715825332131,0.051344666136705866,0.06061915546929732
0.412,-0.0196612377194014,-0.0376919641161805,0.0376919641161805,0.05128831206513019,0.06074004313203497
0.4125,0.0206676313191504,0.003873503737068053,0.003873503737068053,0.051231746343535445,0.060747472884705965
0.413,0.0515257572401624,0.03417302398459636,0.03417302398459636,0.0511749821476842,0.06071114298956377
0.4135,0.0654412462794368,0.046361917017906526,0.046361917017906526,0.0511180327090578,0.06071974854547338
0.414,0.0534927684883474,0.03411228525764512,0.03411228525764512,0.05106091131144838,0.06068713234569574
0.4145,0.0210810393990751,0.003286753240439519,0.003286753240439519,0.0510036312875254,0.060644720652648414
0.415,-0.0100210878175472,-0.0269478939000347,0.0269478939000347,0.05094620601537902,0.0606765591377203
0.4155,-0.0200266097007619,-0.038120392261689354,0.038120392261689354,0.050888648915042696,0.06068571821891082
0.416,-0.0082151715750302,-0.027431543368568404,0.027431543368568404,0.05083097344499702,0.06071231190785879
0.4165,0.0097185727385425,-0.008836215062544808,0.008836215062544808,0.05077319309865687,0.06087264856536409
0.417,0.0167804828052025,-0.000785270996031602,0.000785270996031602,0.050715321400843935,0.060973836712449936
0.4175,0.0058365115072473,-0.012322674916904332,0.012322674916904332,0.050657371904246414,0.0608503764966922
0.418,-0.0176885882429593,-0.037053018333591384,0.037053018333591384,0.05059935818586767,0.06072074613066029
0.4185,-0.038624190620388,-0.05765866177987353,0.05765866177987353,0.050541293843465514,0.06081979545965066
0.419,-0.041125225034696,-0.05871723211983375,0.05871723211983375,0.05048319249198353,0.06102256995181706
0.4195,-0.0222150749009959,-0.039758139509644796,0.039758139509644796,0.050425067759975996,0.06109341224471006
0.42,0.0031558529630114,-0.016254286364770443,0.016254286364770443,0.05036693328602755,0.06105675244775186
0.4205,0.0163172870633738,-0.004252132341140798,0.004252132341140798,0.05030880271516909,0.06105338845353544
0.421,0.0163860235537806,-0.0027896659199599244,0.0027896659199599244,0.05025068969529104,0.06108586206685602
0.4215,0.0223282561844178,0.005096735883365726,0.005096735883365726,0.050192607873555325,0.061092762648771434
0.422,0.0491593291098441,0.031448212155490644,0.031448212155490644,0.050134570892807095,0.06106612021784853
0.4225,0.0866075651728425,0.06651637429214292,0.06651637429214292,0.05007659238798725,0.0610499380908694
0.423,0.1085915177595089,0.08738895652980458,0.08738895652980458,0.050018685982546614,0.06108550698896235
0.4235,0.1025150376861469,0.08283254788064584,0.08283254788064584,0.04996086528486242,0.06115250731690108
0.424,0.0820625179716223,0.06445912179059557,0.06445912179059557,0.049903143884657865,0.0611823376730528
0.4245,0.0691788831579552,0.0513255663987178,0.0513255663987178,0.04984553534942548,0.06116501021698105
0.425,0.0687037455904915,0.04825008657944864,0.04825008657944864,0.04978805322085496,0.06121803215849447
0.4255,0.0662279669071862,0.044281886250864946,0.044281886250864946,0.04973071101126647,0.061400634526175606
0.426,0.0497831672887063,0.02985482794451449,0.02985482794451449,0.04967352220005027,0.06154321152041565
0.4265,0.0252445771446921,0.007950651202799586,0.007950651202799586,0.04961650023011358,0.06154533340009914
0.427,0.0053552283629056,-0.013005533758555399,0.013005533758555399,0.04955965850433569,0.06159374542310082
0.4275,-0.0073737746905801,-0.029134487104206366,0.029134487104206366,0.04950301038203214,0.06173955032942734
0.428,-0.0150693942656065,-0.03738597308770285,0.03738597308770285,0.04944656917542886,0.06178177462877633
0.4285,-0.0083166511500461,-0.02760577351866462,0.02760577351866462,0.04939034814614692,0.06179280147796956
0.429,0.0263550785850906,0.009114036160439612,0.009114036160439612,0.04933436050169855,0.06197062808581974
0.4295,0.0793987195571399,0.06041601127672436,0.06041601127672436,0.04927861939199496,0.06211285592829126
0.43,0.1131338909165516,0.09103270598032923,0.09103270598032923,0.04922313790586634,0.062000699929159304
0.4305,0.0955192701781979,0.07291372112120034,0.07291372112120034,0.049167929067594505,0.06184652065911271
0.431,0.0376095341114983,0.017780292495908057,0.017780292495908057,0.04911300583345842,0.061912356849629285
0.4315,-0.0110654964046115,-0.028398333021621307,0.028398333021621307,0.049058381088293045,0.06210939567063882
0.432,-0.0098063200309918,-0.02835221753938545,0.02835221753938545,0.049004067642061756,0.062181538688809844
0.4325,0.0337219354302334,0.011818765527881973,0.011818765527881973,0.048950078226442935,0.06206236186944758
0.433,0.0764976884046234,0.05375873534556093,0.05375873534556093,0.04889642549143088,0.061914559806777805
0.4335,0.0886034260428984,0.06850546845566996,0.06850546845566996,0.04884312200195151,0.06190715634320482
0.434,0.0784901796718635,0.060443981227144644,0.060443981227144644,0.048790180234493066,0.0620707514609502
0.4345,0.0694798446223033,0.050328880329703715,0.050328880329703715,0.04873761257375197,0.06227034042296752
0.435,0.0641691638559905,0.043233418548621005,0.043233418548621005,0.04868543130929401,0.062328308673867634
0.4355,0.0423454189141614,0.02141049443957716,0.02141049443957716,0.04863364863223107,0.062303462239288725
0.436,-0.0100520482300323,-0.0304778099021982,0.0304778099021982,0.048582276631913626,0.062377388778843475
0.4365,-0.0773530677480726,-0.09785534004746776,0.09785534004746776,0.04853132729263917,0.062469579757957236
0.437,-0.1192202232681582,-0.13905153657203467,0.13905153657203467,0.04848081249037674,0.06244194070026616
0.4375,-0.1011053055770894,-0.11973180880676627,0.11973180880676627,0.04843074398950783,0.062403260475899086
0.438,-0.0281201371318229,-0.047361810204740264,0.047361810204740264,0.04838113343958386,0.06243075159360425
0.4385,0.0505093330074632,0.029159761233477452,0.029159761233477452,0.04833199237210045,0.06244711760824146
0.439,0.0799675005258279,0.058199935695749196,0.058199935695749196,0.04828333219728914,0.062446358580277736
0.4395,0.0476153909057402,0.027822102211134674,0.027822102211134674,0.04823516420092722,0.06244148833116235
0.44,-0.0100224761196361,-0.028332862805410287,0.028332862805410287,0.048187499541166426,0.062382109675373
0.4405,-0.0472173886758315,-0.06626650704553866,0.06626650704553866,0.048140349245381214,0.062333486481315176
0.441,-0.0512310771434102,-0.07159201791309168,0.07159201791309168,0.048093724207037475,0.06239174579426179
0.4415,-0.0444894990221503,-0.06510773986012071,0.06510773986012071,0.048047635182582364,0.06243483890734686
0.442,-0.0512954429201085,-0.07177583595610172,0.07177583595610172,0.048002092788356016,0.062353437591735845
0.4425,-0.0675532780347736,-0.0879367376433668,0.0879367376433668,0.04795710749752585,0.062286036786915765
0.443,-0.0628540335655898,-0.08223933679469973,0.08223933679469973,0.047912689637044314,0.06235223685170549
0.4435,-0.0129251899394363,-0.03098985945191316,0.03098985945191316,0.047868849384630895,0.062491671075122095
0.444,0.0668962628807113,0.04816343916868952,0.04816343916868952,0.047825596765779535,0.06262248734938725
0.4445,0.1242549024160559,0.10292149997033892,0.10292149997033892,0.04778294165079233,0.06271423792186866
0.445,0.1158485657492257,0.09337665201422306,0.09337665201422306,0.04774089375184079,0.06275225043588195
0.4455,0.054140695236732,0.03411353340255338,0.03411353340255338,0.04769946262005579,0.06273599772401268
0.446,0.001188824700736,-0.015617117024532823,0.015617117024532823,0.04765865764264757,0.06271909190894201
0.4465,0.0086222838627259,-0.008773153302480501,0.008773153302480501,0.047618488040057055,0.06280392918001018
0.447,0.0644862775978481,0.04310982049878731,0.04310982049878731,0.04757896286313998,0.06300564413591975
0.4475,0.1062533124263249,0.08314478086287139,0.08314478086287139,0.04754009099038513,0.0631767364314238
0.448,0.0871696304528008,0.06705439366246255,0.06705439366246255,0.04750188112516823,0.0632174905440146
0.4485,0.0214407243731895,0.004337122269646096,0.004337122269646096,0.047464341793042646,0.06321740406092388
0.449,-0.0375517778433463,-0.05592691862339358,0.05592691862339358,0.047427481339068274,0.06324139413115211
0.4495,-0.0511662047154925,-0.07244521784176984,0.07244521784176984,0.04739130792517995,0.06324673183208875
0.45,-0.0216200218025872,-0.0429695266447829,0.0429695266447829,0.04735582952759662,0.06326137029564234
0.4505,0.0215304627022812,0.0022013055365925887,0.0022013055365925887,0.0473210539342727,0.06331901219952908
0.451,0.0462419176101387,0.027519012525067006,0.027519012525067006,0.047286988742392885,0.06333402991561708
0.4515,0.0351353833583949,0.01517692437554603,0.01517692437554603,0.04725364135591174,0.06333631941867808
0.452,-0.005384241062695,-0.026240117828205355,0.026240117828205355,0.04722101898313937,0.06353717498762043
0.4525,-0.0465574058879244,-0.0670042260878497,0.0670042260878497,0.04718912863437442,0.06390147593515631
0.453,-0.0545383122620621,-0.07404169365111916,0.07404169365111916,0.047157977119585394,0.06409493120974794
0.4535,-0.015830176594164,-0.03481119698904049,0.03481119698904049,0.047127571046141556,0.06405108307456164
0.454,0.0491248934266814,0.02960768693084123,0.02960768693084123,0.04709791681659423,0.0640411935735838
0.4545,0.0987499635101446,0.07779013868635198,0.07779013868635198,0.04706902062650968,0.06413781545172983
0.455,0.1032647969841687,0.0815359414820127,0.0815359414820127,0.04704088846235447,0.06419696119156032
0.4555,0.0705069676161617,0.050165276134050155,0.050165276134050155,0.0470135260994345,0.06419111162122916
0.456,0.037825044770425,0.019730574476647857,0.019730574476647857,0.04698693909988875,0.0641190164404304
0.4565,0.0340649680001371,0.01581103762055768,0.01581103762055768,0.046961132810738736,0.06398672096183497
0.457,0.0501916988639941,0.028907385402191732,0.028907385402191732,0.04693611236199501,0.06395854818428597
0.4575,0.0528151260623436,0.029713292888649944,0.029713292888649944,0.04691188266482182,0.06402604386810479
0.458,0.0268064025461071,0.006030855834867888,0.006030855834867888,0.04688844840976091,0.06387807048347471
0.4585,-0.0055343493842346,-0.02307959267657277,0.02307959267657277,0.046865814065015804,0.06354513029556613
0.459,-0.0145342665268192,-0.03264760401183742,0.03264760401183742,0.04684398387479719,0.06345325639646933
0.4595,-0.0028122067220274,-0.02421699416593412,0.02421699416593412,0.04682296185773057,0.0635882519825052
0.46,-0.0015293507654252,-0.024208838376404876,0.024208838376404876,0.04680275180532674,0.06357535186377093
0.4605,-0.0292896350263169,-0.04998793588263884,0.04998793588263884,0.0467833572805159,0.06350001512892235
0.461,-0.0667059024682607,-0.08526101646584103,0.08526101646584103,0.04676478161624592,0.06360102105957162
0.4615,-0.0755884278451654,-0.09435206893878959,0.09435206893878959,0.0467470279141454,0.06364271840302779
0.462,-0.0382066441223441,-0.05870798389363403,0.05870798389363403,0.04673009904325196,0.06351240637248891
0.4625,0.0258760120188942,0.0044537067046688805,0.0044537067046688805,0.046713997638806314,0.06355912321159132
0.463,0.0791810913667402,0.05845868774949276,0.05845868774949276,0.04669872610111279,0.06375812926681547
0.4635,0.0977029931298126,0.07801873095823646,0.07801873095823646,0.0466842865944669,0.06367076940152848
0.464,0.0835565742195807,0.06409682439136405,0.06409682439136405,0.04667068104615077,0.06336299375558242
0.4645,0.0540295769557356,0.03427048326627009,0.03427048326627009,0.04665791114549711,0.06326179658757342
0.465,0.0249792718396968,0.004890036290124833,0.004890036290124833,0.04664597834302248,0.06332615620319754
0.4655,0.0043843093444944,-0.016103776293695343,0.016103776293695343,0.04663488384963065,0.0632462459422466
0.466,-0.0031801793245966,-0.023772537646644477,0.023772537646644477,0.046624628635886865,0.06307588339000789
0.4665,0.008486923301495,-0.011376773942784336,0.011376773942784336,0.046615213431363794,0.0630277606091303
0.467,0.0423080263516271,0.023343822430731923,0.023343822430731923,0.0466066387240598,0.06302994103869024
0.4675,0.0860188162228846,0.0668911142416872,0.0668911142416872,0.046598904759890154,0.06291648079183243
0.468,0.110916741753795,0.09070621981026354,0.09070621981026354,0.046592011542251684,0.06274365091037654
0.4685,0.0919196755831929,0.07108108313081919,0.07108108313081919,0.04658595883166118,0.0626573992075996
0.469,0.0332059986568715,0.012975069012112404,0.012975069012112404,0.04658074614546805,0.06265699145133559
0.4695,-0.0285862988858948,-0.047525100934887314,0.047525100934887314,0.0465763727576415,0.06264764025463021
0.47,-0.0514301489751357,-0.06967827522839969,0.06967827522839969,0.04657283769863287,0.06263197684589095
0.4705,-0.0222704169646486,-0.04136036915841036,0.04136036915841036,0.0465701397553134,0.06266697084709691
0.471,0.0331396871446354,0.012434141882419683,0.012434141882419683,0.04656827747098815,0.0626703821476769
0.4715,0.0746117592983956,0.053735452479315604,0.053735452479315604,0.04656724914548646,0.06256851355027535
0.472,0.0824285997873794,0.06348027788252987,0.06348027788252987,0.046567052835329484,0.06250663128534675
0.4725,0.0679434382996001,0.05043569896483885,0.05043569896483885,0.04656768635397532,0.06254871308874312
0.473,0.0523925793874943,0.03366940792407571,0.03366940792407571,0.046569147272142196,0.0625051995738629
0.4735,0.0433104750888559,0.022673097438810692,0.022673097438810692,0.04657143291821021,0.06233396012480987
0.474,0.0359503672191015,0.01568207053593828,0.01568207053593828,0.04657454037870209,0.06223738969206542
0.4745,0.0291178176650411,0.010652112457994812,0.010652112457994812,0.046578466498843375,0.06227340241621899
0.475,0.0280330676354186,0.010003963721886331,0.010003963721886331,0.046583207883202665,0.06230977229386603
0.4755,0.03287164105609,0.01383819191515805,0.01383819191515805,0.046588760896412,0.06230282936450461
0.476,0.0340513013191282,0.014456494596963878,0.014456494596963878,0.04659512166396785,0.06229373781859324
0.4765,0.0223384854889702,0.002998448647065121,0.002998448647065121,0.04660228607311274,0.06229436557942309
0.477,0.0008310333752371,-0.0182810784313131,0.0182810784313131,0.04661024977379758,0.06234195711954571
0.4775,-0.0148433525272095,-0.033792435124559664,0.033792435124559664,0.0466190081797245,0.062454592275534584
0.478,-0.0098349552174855,-0.028390991295712292,0.028390991295712292,0.046628556469470006,0.06255197911835822
0.4785,0.0129860603272855,-0.005404245869306703,0.005404245869306703,0.04663888958768802,0.0625609071948694
0.479,0.0291059957052791,0.010194772920214198,0.010194772920214198,0.046650002246392486,0.06250945028445867
0.4795,0.0108394178874617,-0.008835327713771601,0.008835327713771601,0.046661888926318736,0.06247944676097386
0.48,-0.0444239021461738,-0.0642603932179196,0.0642603932179196,0.046674543878363194,0.06247943128598598
0.4805,-0.1038461537692499,-0.12294913240520094,0.12294913240520094,0.046687961125100416,0.06245042750013931
0.481,-0.1222190514017982,-0.14023912658314158,0.14023912658314158,0.04670213446237679,0.062414521614602536
0.4815,-0.082269423251565,-0.0999537103002631,0.0999537103002631,0.04671705746097992,0.06241222539958656
0.482,-0.0149600543891702,-0.033892865209508946,0.033892865209508946,0.046732723468382864,0.06239533036717789
0.4825,0.0235861552643824,0.002692910411790851,0.002692910411790851,0.046749125610562554,0.06234541924449055
0.483,0.002417232874257,-0.018605714011384417,0.018605714011384417,0.046766256793891986,0.06231088992484367
0.4835,-0.0529372135922479,-0.07145784957258844,0.07145784957258844,0.04678410970710583,0.06230761849056031
0.484,-0.0832436793348039,-0.09977159164588263,0.09977159164588263,0.04680267682333912,0.06229693552588806
0.4845,-0.0545338128568528,-0.07259324402594754,0.07259324402594754,0.046821950402238736,0.062225957878687094
0.485,0.0086760457673131,-0.01256309281578414,0.01256309281578414,0.046841922492147345,0.06208422506185225
0.4855,0.0534768491089032,0.03155608690840267,0.03155608690840267,0.046862584932359404,0.061954352008264574
0.486,0.0568034874814478,0.03721765430194427,0.03721765430194427,0.046883929355449085,0.06192161493706254
0.4865,0.0454445099243262,0.027958558341525497,0.027958558341525497,0.046905947189669825,0.061914872240582
0.487,0.059342171673135,0.041369227209221496,0.041369227209221496,0.04692862966142536,0.06183830020779357
0.4875,0.1037390615807308,0.08359476414276809,0.08359476414276809,0.04695196779781187,0.06177724119708428
0.488,0.1427313527346317,0.12111713338696282,0.12111713338696282,0.04697595242923104,0.06178584323404853
0.4885,0.1376987481385093,0.11663599480598055,0.11663599480598055,0.047000574192073645,0.06176787290996305
0.489,0.0872072268088467,0.06796092871451531,0.06796092871451531,0.047025823531473394,0.06177368841465832
0.4895,0.0273247283235226,0.009064252048279944,0.009064252048279944,0.04705169070413089,0.06186923763937982
0.49,-0.0046649860455002,-0.024079073960090493,0.024079073960090493,0.047078165781207666,0.06183537326891923
0.4905,-0.0030108045164135,-0.024456284484893343,0.024456284484893343,0.04710523865129041,0.061599346066024435
0.491,0.0093809572976729,-0.012365144652775804,0.012365144652775804,0.04713289902342566,0.06142857497869728
0.4915,0.0102810107515337,-0.009654286684261559,0.009654286684261559,0.0471611364302251,0.06140414223322086
0.492,-0.0012417539810192,-0.020039701807614475,0.020039701807614475,0.047189940231041526,0.06142252880464535
0.4925,-0.0110683769629614,-0.03130871858347403,0.03130871858347403,0.047219299615215635,0.06154292626855634
0.493,-0.0073306113744129,-0.029348175638863213,0.029348175638863213,0.04724920360539336,0.06178128359034928
0.4935,0.0130863743579803,-0.008144432610934671,0.008144432610934671,0.047279641060913716,0.061982635676636824
0.494,0.046828101159932,0.027465363025993225,0.027465363025993225,0.04731060068126673,0.06205598233321773
0.4945,0.0822957080037094,0.06252083385271681,0.06252083385271681,0.04734207100962111,0.06200136412545211
0.495,0.0993775606726217,0.07759508723466063,0.07759508723466063,0.04737404043642111,0.06184383124649829
0.4955,0.0835432406944287,0.061485798378263706,0.061485798378263706,0.04740649720305218,0.06170502126562514
0.496,0.0428332527158907,0.02234409386838573,0.02234409386838573,0.04743942940557466,0.061766860732495744
0.4965,0.0037236723414823,-0.01607891139401937,0.01607891139401937,0.047472824998524996,0.0620351553150641
0.497,-0.0119236385597713,-0.03262160212372989,0.03262160212372989,0.0475066717987839,0.062246608137048416
0.4975,-0.0025383871474987,-0.024103115916929665,0.024103115916929665,0.047540957489511024,0.06216415393332105
0.498,0.0183388192627112,-0.0032879129124008706,0.0032879129124008706,0.04757566962414541,0.0618634963050895
0.4985,0.0371213981672205,0.015889739973353398,0.015889739973353398,0.04761079563047115,0.061609587680312494
0.499,0.0493324314895135,0.028725536564768926,0.028725536564768926,0.04764632281474749,0.06152268780790862
0.4995,0.0569625709663005,0.03667067303306511,0.03667067303306511,0.04768223836590254,0.061514973515093184
0.5,0.0597028090411589,0.038722069373597914,0.038722069373597914,0.047718529359789666,0.06151311738283883
0.5005000000000001,0.0525663589559563,0.030590520863076738,0.030590520863076738,0.04775518276350549,0.06151617873137111
0.501,0.034792455571584,0.0130136101045018,0.0130136101045018,0.04779218543976834,0.06152347140278867
0.5015000000000001,0.0173307303687038,-0.003228846619773698,0.003228846619773698,0.04782952415135598,0.06153646820201396
0.502,0.0145419616628835,-0.005491507174062162,0.005491507174062162,0.047867185565601364,0.061528250625131946
0.5025000000000001,0.0272554957518114,0.006460816582271347,0.006460816582271347,0.04790515625894508,0.061457819856532966
0.503,0.039017048638995,0.017324249550674978,0.017324249550674978,0.047943422721542964,0.06134126096218722
0.5035000000000001,0.0322272772448406,0.010446793216942791,0.010446793216942791,0.047981971361927375,0.06122866382663253
0.504,0.0061591624991908,-0.014943708007275604,0.014943708007275604,0.0480207885117203,0.061148651409770466
0.5045000000000001,-0.0227899930141682,-0.042887621258546525,0.042887621258546525,0.04805986043039652,0.06110693439195592
0.505,-0.0381348589694225,-0.05789025906968755,0.05789025906968755,0.04809917331009472,0.06109793058668652
0.5055000000000001,-0.0399406868961547,-0.060862821093922,0.060862821093922,0.04813871328047446,0.06109661269187336
0.506,-0.04292284288897,-0.06521619437083558,0.06521619437083558,0.04817846641361678,0.06106897658340901
0.5065000000000001,-0.0560894658928873,-0.07769650524722055,0.07769650524722055,0.04821841872896622,0.061016607633342566
0.507,-0.0679527132254433,-0.08744104784130328,0.08744104784130328,0.04825855619831199,0.06097899636617563
0.5075000000000001,-0.0583881547734091,-0.07734588397433914,0.07734588397433914,0.04829886475080614,0.060973237004896215
0.508,-0.0234640476284817,-0.04422533247929526,0.04422533247929526,0.04833933027801659,0.060968390228819475
0.5085000000000001,0.0192062249166111,-0.0030230497948473614,0.0030230497948473614,0.04837993863901298,0.0609401559054281
0.509,0.0506596671403877,0.029402162426077842,0.029402162426077842,0.048420675665483415,0.06091841344655804
0.5095000000000001,0.0688857581450126,0.04968231809266033,0.04968231809266033,0.04846152716688026,0.06092795377112401
0.51,0.082636027527903,0.06378763201861759,0.06378763201861759,0.048502478935593,0.0608919689212108
0.5105000000000001,0.091781927680116,0.07132256414678481,0.07132256414678481,0.04854351675214637,0.060711194581491115
0.511,0.0828720889159738,0.061376567921256744,0.061376567921256744,0.04858462639042162,0.0604736036924646
0.5115000000000001,0.0476691981675424,0.027093755470593242,0.027093755470593242,0.04862579362289909,0.06038059015757999
0.512,0.0003423613473099,-0.019086584172091744,0.019086584172091744,0.048667004225919956,0.0604054455261413
0.5125,-0.0303323935971034,-0.04983963181585197,0.04983963181585197,0.048708243984965365,0.06034174266306776
0.513,-0.0252750542433016,-0.04504111786582548,0.04504111786582548,0.04874949869995094,0.06018706947960516
0.5135,0.009853671264191,-0.009781277252047365,0.009781277252047365,0.048790754190534746,0.060105599141163625
0.514,0.0498637861290987,0.029713219046753316,0.029713219046753316,0.04883199630143675,0.0601084663672044
0.5145,0.0694023561758071,0.04864705786535703,0.04864705786535703,0.048873210907767646,0.06007348189451256
0.515,0.0631755852139357,0.04341072514195283,0.04341072514195283,0.048914383920365,0.05998159767925565
0.5155,0.048549485045997,0.03025700810962946,0.03025700810962946,0.048955501291134546,0.059941886563690046
0.516,0.0447325279593387,0.025961878624366126,0.025961878624366126,0.04899654901839441,0.05997832760042956
0.5165,0.0521769269193705,0.03170511945819074,0.03170511945819074,0.049037513152220005,0.05998707936207209
0.517,0.0568879162595459,0.03614452909659979,0.03614452909659979,0.049078379799787214,0.05993796671624809
0.5175,0.0500129479094956,0.030761210275475674,0.030761210275475674,0.04911913513071164,0.05989607152064544
0.518,0.0359515884741427,0.017852296892792174,0.017852296892792174,0.049159765382381294,0.0599279338286737
0.5185,0.0227019492541695,0.0039430396204884095,0.0039430396204884095,0.04920025686528042,0.05997672717545837
0.519,0.0111344465515481,-0.009094054355656297,0.009094054355656297,0.049240595968301736,0.059832164962033654
0.5195,-0.0020236905266829,-0.022350544651427547,0.022350544651427547,0.049280769164044516,0.05958160838772491
0.52,-0.0129812620315893,-0.031841468487817715,0.031841468487817715,0.04932076301409575,0.05955675929597199
0.5205,-0.0098916799403454,-0.02802673236977678,0.02802673236977678,0.0493605641742914,0.05964357127007969
0.521,0.0129939103021708,-0.006243694561718232,0.006243694561718232,0.049400159399954874,0.05962084627180666
0.5215,0.0438186898810755,0.023714336950721136,0.023714336950721136,0.04943953555110944,0.05960970001074114
0.522,0.0595387440360819,0.04033415170452894,0.04033415170452894,0.049478679597661494,0.059625663363246
0.5225,0.0422375555039289,0.023912593073927627,0.023912593073927627,0.04951757862455122,0.05960358753897317
0.523,-0.0101530052066776,-0.02929403880629549,0.02929403880629549,0.04955621983686732,0.0596000124069222
0.5235,-0.0808857329335376,-0.10097503592388965,0.10097503592388965,0.04959459056492223,0.05958972152321024
0.524,-0.1375799028768358,-0.15701489942294627,0.15701489942294627,0.04963267826928429,0.05952249257958288
0.5245,-0.1474878738131654,-0.1658197269941939,0.1658197269941939,0.049670470545763186,0.05941467724124246
0.525,-0.1014389556301841,-0.11987382496540588,0.11987382496540588,0.04970795513034514,0.059310822440335934
0.5255,-0.0244640346628636,-0.043812070300839834,0.043812070300839834,0.04974511990407443,0.05926922672695137
0.526,0.0416650736587985,0.021714485643851596,0.021714485643851596,0.049781952897878075,0.059270827406713605
0.5265,0.070254330157492,0.050365763011427776,0.050365763011427776,0.049818442297330866,0.05925346617761297
0.527,0.0679201865475761,0.04874520661823027,0.04874520661823027,0.049854576447358,0.05923055497733337
0.5275,0.0640308294211212,0.04583325934379448,0.04583325934379448,0.049890343856872854,0.05922503079387032
0.528,0.0813944022439555,0.0632317599512849,0.0632317599512849,0.049925733203347145,0.05925976670335803
0.5285,0.1152594293978705,0.09552522059859353,0.09552522059859353,0.04996073333731111,0.05946821871447732
0.529,0.1406389431085391,0.11945305982667272,0.11945305982667272,0.04999533328678092,0.059843113061874446
0.5295,0.1395666734752488,0.11943218729101604,0.11943218729101604,0.0500295222616109,0.060064597401812275
0.53,0.117234515850598,0.09963993151206701,0.09963993151206701,0.050063289657768,0.06004290760867428
0.5305,0.0882460202977623,0.07088287150806555,0.07088287150806555,0.05009662506152621,0.06012711713904012
0.531,0.0531902247703204,0.03298132702542337,0.03298132702542337,0.05012951825357881,0.060473582325341516
0.5315,0.0006747886647973,-0.021442163593938204,0.021442163593938204,0.050161959213066445,0.060822134286449475
0.532,-0.0662268507465669,-0.08645474890767392,0.08645474890767392,0.0501939381215193,0.06096364460369326
0.5325,-0.1186841361232091,-0.13594217756474067,0.13594217756474067,0.05022544536671157,0.06096515849131594
0.533,-0.1270919133320165,-0.14457686162134778,0.14457686162134778,0.05025647154642663,0.06097396415027567
0.5335,-0.0921047181090902,-0.11272324859767266,0.11272324859767266,0.05028700747213113,0.061056010419377145
0.534,-0.041421401646524,-0.06379369239690753,0.06379369239690753,0.050317044172556655,0.06120784221645522
0.5345,0.0025727566503656,-0.01783044966642161,0.01783044966642161,0.05034657289718752,0.061333221645909396
0.535,0.0414311420811382,0.02397492121042851,0.02397492121042851,0.05037558511965366,0.061239759575128665
0.5355,0.0828047642938952,0.06516406211760324,0.06516406211760324,0.050404072541027724,0.060849121718276916
0.536,0.1140063450694003,0.09330837619124994,0.09330837619124994,0.05043202709302543,0.060353785647322473
0.5365,0.1082744097771611,0.08594947065681031,0.08594947065681031,0.05045944094110859,0.06002688178992345
0.537,0.0607134904339905,0.04020739340914145,0.04020739340914145,0.05048630648748966,0.05993144172603255
0.5375,0.006483361635575,-0.011799785232925325,0.011799785232925325,0.05051261637403732,0.05993343088459842
0.538,-0.007976059649477,-0.026599516744156036,0.026599516744156036,0.050538363485082054,0.05993396907680763
0.5385,0.0288504198340822,0.008652748334621218,0.008652748334621218,0.05056354095012133,0.059924075203023106
0.539,0.080402017150706,0.05971424330425593,0.05971424330425593,0.05058814214642341,0.05990971818160667
0.5395,0.0937125454833397,0.07319329499216974,0.07319329499216974,0.05061216070152918,0.05991211493668632
0.54,0.0445433496746712,0.02395161550728185,0.02395161550728185,0.05063559049565109,0.059940991920385156
0.5405,-0.0408571157138466,-0.06089968724837737,0.06089968724837737,0.050658425663968346,0.05997723095109882
0.541,-0.1034171661104785,-0.12231385231307247,0.12231385231307247,0.05068066059881728,0.0600000478367903
0.5415,-0.0965233556036644,-0.11572397801299136,0.11572397801299136,0.05070228995177616,0.05999573604679914
0.542,-0.0228961203970349,-0.04399239925592788,0.04399239925592788,0.05072330863564332,0.06001022373195737
0.5425,0.0700062041614436,0.04837261357166178,0.04837261357166178,0.05074371182630791,0.06010643414582628
0.543,0.1297035488664286,0.10988551792606172,0.10988551792606172,0.050763494964512566,0.06023357251422715
0.5435,0.1331629342346382,0.11441525328205726,0.11441525328205726,0.05078265375750733,0.06028591406768781
0.544,0.0902789515017862,0.07003577035621772,0.07003577035621772,0.05080118418059442,0.06024776971150183
0.5445,0.0286354480938359,0.00704924117635659,0.00704924117635659,0.05081908247856352,0.060190542875196304
0.545,-0.021039889609685,-0.04146679713348475,0.04146679713348475,0.050836345167017225,0.060170124884636245
0.5455,-0.0383938828935921,-0.057272461933412275,0.057272461933412275,0.05085296903358662,0.06017988933950565
0.546,-0.0265644275169512,-0.046197840008849626,0.046197840008849626,0.05086895113903679,0.06019258476007935
0.5465,-0.0104234376573687,-0.03183297233779289,0.03183297233779289,0.05088428881826232,0.06019368635534592
0.547,-0.0133950307569235,-0.03472698684353455,0.03472698684353455,0.05089897968117247,0.060207681238418666
0.5475,-0.0336995148025208,-0.05328477460317128,0.05328477460317128,0.050913021613466086,0.06027757608492388
0.548,-0.0455501539348716,-0.0645328384998904,0.0645328384998904,0.05092641277729595,0.060359523028162124
0.5485,-0.024041204386495,-0.04457702657628042,0.04457702657628042,0.05093915161182237,0.06037157770638999
0.549,0.0313808248256328,0.00975501897284671,0.00975501897284671,0.05095123683365583,0.06033233540096263
0.5495,0.0950250693151644,0.0749599343323271,0.0749599343323271,0.05096266743718837,0.060302367949203226
0.55,0.1313131014303216,0.1129433815494266,0.1129433815494266,0.05097344269481357,0.06030290615210138
0.5505,0.1142554889434166,0.09420419666276279,0.09420419666276279,0.050983562157034666,0.06034360445414146
0.551,0.0444151011997098,0.021659052713918034,0.021659052713918034,0.05099302565246075,0.06041318811623563
0.5515,-0.0401256023178674,-0.06155241711097841,0.06155241711097841,0.051001833287690646,0.06046484594422708
0.552,-0.0782942258819565,-0.09594163307529589,0.09594163307529589,0.05100998544708448,0.06047522003614601
0.5525,-0.034685554163648,-0.05236458264530068,0.05236458264530068,0.05101748279242287,0.06047765398431668
0.553,0.0597240067998745,0.03820407629091715,0.03820407629091715,0.05102432626245372,0.06051804416823328
0.5535,0.1288215381042403,0.10584987430339796,0.10584987430339796,0.051030517072326705,0.06063394877693266
0.554,0.119544178586525,0.0991882149270684,0.0991882149270684,0.05103605671291566,0.06087022068313002
0.5545,0.0436956085988727,0.025427479650846276,0.025427479650846276,0.05104094695002892,0.06120715135355065
0.555,-0.0435675643595609,-0.06261886700045935,0.06261886700045935,0.05104518982350789,0.06145281033680883
0.5555,-0.093696017754886,-0.1140565394705486,0.1140565394705486,0.05104878764621423,0.06144723117746792
0.556,-0.0937758709188835,-0.11437853486383553,0.11437853486383553,0.051051743002906054,0.0613616907976355
0.5565,-0.0604524807996577,-0.08104397485079909,0.08104397485079909,0.05105405874900355,0.06144913170912688
0.557,-0.0151873113266063,-0.035691959085449185,0.035691959085449185,0.05105573800924473,0.06167457261340719
0.5575,0.033525201928033,0.013857665893729963,0.013857665893729963,0.051056784176231905,0.06184279469914439
