tiempo_s,senal_cruda,senal_filtrada,rectificada,envolvente,rms_movil
0.0,-0.0065464591323504,0.002084992798374319,0.002084992798374319,0.0,0.05770852343766683
0.0005,0.0454912127568688,0.05327527710897795,0.05327527710897795,0.0,0.057860106181346245
0.001,0.074098164946488,0.08008838091505285,0.08008838091505285,0.0,0.05796088568193738
0.0015,0.0741761552683142,0.0797524757910895,0.0797524757910895,0.0,0.05796250707381299
0.002,0.0632173686035978,0.07036737429306043,0.07036737429306043,0.0,0.05800667917730986
0.0025,0.0624961099078174,0.06937131916350082,0.06937131916350082,0.00044542879783999404,0.058090801947975515
0.003,0.0729717234657967,0.07618368168254955,0.07618368168254955,0.0011762262531549918,0.058150624406570754
0.0035,0.0781797718552215,0.07894807266934416,0.07894807266934416,0.00190649675602975,0.05820103094597322
0.004,0.0718145301064711,0.07455971143352541,0.07455971143352541,0.002636164429098641,0.058310944536063655
0.0045,0.0679839530628564,0.07314514109975745,0.07314514109975745,0.0033651535127998114,0.05859180978391662
0.005,0.0763470733996076,0.07967106388163842,0.07967106388163842,0.004093388383611544,0.059045787690966405
0.0055,0.0799729308249419,0.07925143926777359,0.07925143926777359,0.004820793572219449,0.059432130875261495
0.006,0.0523619413156939,0.05060746592144132,0.05060746592144132,0.00554729378160637,0.05956352929027973
0.0065,-0.0065117772570456,-0.005815956306274142,0.005815956306274142,0.0062728139050571684,0.05956614454611602
0.007,-0.0626584364336789,-0.06050376741747339,0.06050376741747339,0.006997279044070791,0.059577720924506784
0.0075,-0.0790338925892793,-0.07899396817899051,0.07899396817899051,0.007720614526172253,0.05958094233532109
0.008,-0.0475167226816645,-0.05039474346552126,0.05039474346552126,0.008442745922617342,0.059581937563976055
0.0085,0.011450177360283,0.008468650091067037,0.008468650091067037,0.009163599065982988,0.059588473402847016
0.009,0.071276664977201,0.07024886447972131,0.07024886447972131,0.009883100067636442,0.05977495407804646
0.0095,0.1127925025402878,0.11233187464777189,0.11233187464777189,0.010601175335076504,0.06037656430762184
0.01,0.1223419759034647,0.12007952703876304,0.12007952703876304,0.011317751589140265,0.06101822590274386
0.0105,0.0923461011719793,0.08821079806914875,0.08821079806914875,0.012032755881068974,0.06121018349512563
0.011,0.0312947367101787,0.027337323045038248,0.027337323045038248,0.012746115609426843,0.06121503988200638
0.0115,-0.0323724121955861,-0.03461242125915692,0.03461242125915692,0.013457758536866937,0.06135677278980969
0.012,-0.0655613545078522,-0.06705479698344524,0.06705479698344524,0.014167612806738502,0.061464092038358974
0.0125,-0.0549609458512611,-0.05824695185760467,0.05824695185760467,0.01487560695953042,0.06146851127142473
0.013,-0.0166650246750734,-0.022182831429987244,0.022182831429987244,0.01558166994914557,0.06148674721649612
0.0135,0.0197393782751617,0.0150884516004621,0.0150884516004621,0.016285731159001084,0.061503848226288536
0.014,0.0343035540581693,0.03263343358059975,0.03263343358059975,0.016987720417949565,0.061503858371682554
0.0145,0.0210507731903115,0.019487788080867572,0.019487788080867572,0.017687568016016453,0.06151218021415955
0.015,-0.0218753119553952,-0.026811787119623648,0.026811787119623648,0.01838520471994881,0.06151399843185786
0.0155,-0.0886188824894604,-0.09489102129272284,0.09489102129272284,0.019080561788570812,0.061521276390821326
0.016,-0.1503883000771727,-0.1537085396766864,0.1537085396766864,0.019773570987941295,0.061550478551257254
0.0165,-0.1646387853523586,-0.1655867093081425,0.1655867093081425,0.020464164606308788,0.0615713966614258
0.017,-0.1143165148500576,-0.11675966352877687,0.11675966352877687,0.021152275468859554,0.06157256311533713
0.0175,-0.0301300762045528,-0.03478519778838967,0.03478519778838967,0.02183783695225452,0.0615785202835684
0.018,0.0359235342293579,0.03132314111358669,0.03132314111358669,0.022520782998951248,0.06159432441139523
0.0185,0.0555703330059787,0.052132086759803006,0.052132086759803006,0.023201048131307488,0.06160689410188052
0.019,0.0408832782339249,0.038614319555673064,0.038614319555673064,0.02387856746546322,0.06161303176791931
0.0195,0.0237442731279808,0.022698574877466255,0.022698574877466255,0.02455327672499818,0.06161525625839987
0.02,0.0227683614852495,0.02127590672927501,0.02127590672927501,0.025225112254362046,0.06161526641672169
0.0205,0.028329637501383,0.024133548402950334,0.024133548402950334,0.02589401103207449,0.06161851406647947
0.021,0.0218924958921677,0.016904779649762922,0.016904779649762922,0.02655991068369231,0.06162579810710102
0.0215,0.0090267392139978,0.007642754404299321,0.007642754404299321,0.027222749494541006,0.061627127510206776
0.022,0.0192659325845832,0.02080199874319047,0.02080199874319047,0.027882466422207958,0.0616288553359445
0.0225,0.0645372326620867,0.06373575184056472,0.06373575184056472,0.02853900110879454,0.061629505501463996
0.023,0.1122426191776175,0.1080216109484403,0.1080216109484403,0.029192293892924347,0.061646703135238824
0.0235,0.1153356217320754,0.11226041801503797,0.11226041801503797,0.029842285821504742,0.06173048935830493
0.024,0.0628201665981225,0.06321393156099714,0.06321393156099714,0.03048891866123903,0.06178544338765103
0.0245,-0.0096987334129678,-0.008866489606424506,0.008866489606424506,0.03113213490988658,0.06179108795324325
0.025,-0.0530766385084274,-0.05442746109273215,0.05442746109273215,0.03177187780726847,0.06194933187199151
0.0255,-0.0405404830865556,-0.04243922608088133,0.04243922608088133,0.032408091346016396,0.062115067039268064
0.026,0.0193638163234153,0.019280702558454793,0.019280702558454793,0.03304072028206271,0.06211576733126717
0.0265,0.0895681481126114,0.09052277872834912,0.09052277872834912,0.03366971014486955,0.06232256279625655
0.027,0.1236131799884876,0.12344347989263654,0.12344347989263654,0.034295007247395,0.06271404009831558
0.0275,0.0933160704139511,0.09206206460641869,0.09206206460641869,0.034916558695794304,0.06283060144120016
0.028,0.0108203210899976,0.01038142012754488,0.01038142012754488,0.03553431239885426,0.06285093604783855
0.0285,-0.0766828158126894,-0.07554784981003383,0.07554784981003383,0.03614821707715904,0.06302250328878
0.029,-0.1218273223110244,-0.12031200463192443,0.12031200463192443,0.03675822227198589,0.06310246661950583
0.0295,-0.112775536091637,-0.11220144000131682,0.11220144000131682,0.03736427835392931,0.0631075310999862
0.03,-0.0773581800922445,-0.07781430805291767,0.07781430805291767,0.03796633653125233,0.06319959518785997
0.0305,-0.0536529756757478,-0.054156828579806915,0.054156828579806915,0.038564348857964,0.06325403603003343
0.031,-0.0558884231877095,-0.05526420577199938,0.05526420577199938,0.03915826824162188,0.0632550064162217
0.0315,-0.0665940993481965,-0.06475137617796617,0.06475137617796617,0.03974804845085907,0.06332094198360025
0.032,-0.0599419408649552,-0.05838604872145477,0.05838604872145477,0.04033364412263508,0.06342470829788335
0.0325,-0.0310202150591157,-0.031046398026978436,0.031046398026978436,0.040915010769210045,0.0635050216489818
0.033,-0.0007008031165145,-0.0013311135745820157,0.0013311135745820157,0.041492104784842096,0.0635664729237503
0.0335,0.0063609790701279,0.006972602547829422,0.006972602547829422,0.042064883452207436,0.06362526121246902
0.034,-0.0165209517884238,-0.014977495374833859,0.014977495374833859,0.042633304948542845,0.06367415410794687
0.0345,-0.0578252689484252,-0.05715444194817733,0.05715444194817733,0.043197328351510335,0.06369920802692697
0.035,-0.1007221016551563,-0.10100099786052766,0.10100099786052766,0.04375691364478352,0.06370628411810615
0.0355,-0.1312137240796684,-0.1309752805822086,0.1309752805822086,0.04431202172335523,0.06370702708131976
0.036,-0.1400194552612627,-0.13929201742115463,0.13929201742115463,0.044862614398565884,0.06370809338076565
0.0365,-0.1248095423902194,-0.12493940765310221,0.12493940765310221,0.04540865440285216,0.06372265718688461
0.037,-0.0905166329440963,-0.09121296581441203,0.09121296581441203,0.04595010539421566,0.0637578076832398
0.0375,-0.0447293572423144,-0.044501865551085235,0.044501865551085235,0.046486931960411614,0.06377187016508579
0.038,0.0052247362310438,0.005887803353014628,0.005887803353014628,0.04701909962285788,0.06379216860837038
0.0385,0.0506844278660581,0.04986944304460508,0.04986944304460508,0.04754657484026467,0.0640217666915427
0.039,0.0841350442415279,0.08208127838767926,0.08208127838767926,0.048069325011985665,0.06443478797888641
0.0395,0.1063639748261854,0.1053440175284636,0.1053440175284636,0.04858731848109116,0.06464018930045358
0.04,0.1242461665203179,0.12483640497026158,0.12483640497026158,0.04910052453716398,0.06464081361880374
0.0405,0.1370671970676137,0.13709065834276,0.13709065834276,0.04960891341881888,0.06490669692486982
0.041,0.1319245818169808,0.12949213821535294,0.12949213821535294,0.05011245631594621,0.06547826327210904
0.0415,0.1005097707437477,0.09674451176350236,0.09674451176350236,0.050611125371680936,0.06599188396003562
0.042,0.0582885168727216,0.056228854889775116,0.056228854889775116,0.051104893684098165,0.06633247120674651
0.0425,0.0374191573608855,0.03796098911750025,0.03796098911750025,0.05159373530763687,0.06661490365461395
0.043,0.0534178852002612,0.05340797392582692,0.05340797392582692,0.05207762525425342,0.06690485502941546
0.0435,0.0825211932341083,0.0787009500432733,0.0787009500432733,0.052556539494306886,0.06709219084339799
0.044,0.0828769462359762,0.07688734310155687,0.07688734310155687,0.05303045495717808,0.06710492218506997
0.0445,0.0402354385715391,0.03691615850762551,0.03691615850762551,0.05349934953162435,0.06719600752327567
0.045,-0.0175498180279684,-0.01698131023587758,0.01698131023587758,0.05396320206587225,0.06750164769038512
0.0455,-0.056397209295048,-0.05658526944319642,0.05658526944319642,0.05442199236745002,0.06773504965772201
0.046,-0.0748526578463265,-0.08004225362279678,0.08004225362279678,0.054875701202762105,0.06776856812249138
0.0465,-0.0929746297233796,-0.10071041544223201,0.10071041544223201,0.05532431029640772,0.06777848776178656
0.047,-0.1071541943810172,-0.11147898943634867,0.11147898943634867,0.05576780233024556,0.06780976354478649
0.0475,-0.0791188727611491,-0.07908743391475373,0.07908743391475373,0.0562061609422067,0.0678126716190353
0.048,0.0152718816582544,0.014355540875882727,0.014355540875882727,0.05663937072485787,0.06782816551825073
0.0485,0.1378178855772659,0.13205328241791864,0.13205328241791864,0.05706741722371729,0.06787924669996316
0.049,0.2092278025024915,0.20119925709215714,0.20119925709215714,0.05749028693532556,0.06792943222860114
0.0495,0.1835300762674113,0.17819961439789878,0.17819961439789878,0.057907967305074026,0.06795962931496359
0.05,0.0929124535470518,0.09096077167916741,0.09096077167916741,0.058320446724793175,0.0679776335581555
0.0505,0.0143649162685715,0.011981333683236783,0.011981333683236783,0.05872771453010404,0.06799188752796324
0.051,-0.0032685456210532,-0.008667752057021215,0.008667752057021215,0.0591297609975356,0.06800245723412418
0.0515,0.0242351823449803,0.017569491152925866,0.017569491152925866,0.05952657734141178,0.06800470520627969
0.052,0.0445942074973716,0.03918464563485229,0.03918464563485229,0.05991815571051138,0.06800838230782864
0.0525,0.0219170568140398,0.0173944221018208,0.0173944221018208,0.06030448918450462,0.06804273976278823
0.053,-0.0364858113620425,-0.04148653236232894,0.04148653236232894,0.060685571770169644,0.06810191557869608
0.0535,-0.0925335580249667,-0.09763157065665277,0.09763157065665277,0.06106139839739227,0.06812681807196834
0.054,-0.1109207500183673,-0.1154512097437552,0.1154512097437552,0.06143196491495216,0.0681304856275484
0.0545,-0.0869119201639265,-0.09186023238614598,0.09186023238614598,0.061797268086098575,0.06821345038011276
0.055,-0.0465490411726622,-0.05292163079585131,0.05292163079585131,0.06215730558391863,0.06834828492243901
0.0555,-0.0197796551116492,-0.026520155622910595,0.026520155622910595,0.06251207598650135,0.0684059279967144
0.056,-0.0147229896578078,-0.019946435461314426,0.019946435461314426,0.06286157877190063,0.06840599670381721
0.0565,-0.0204224671935842,-0.02410072336509343,0.02410072336509343,0.06320581431290043,0.06842666894886178
0.057,-0.0311240548631561,-0.03536585654656087,0.03536585654656087,0.06354478387158548,0.0684360695428912
0.0575,-0.0580648682107394,-0.06456821436333665,0.06456821436333665,0.06387848959372064,0.068448409345559
0.058,-0.1098780906046006,-0.11761858512920251,0.11761858512920251,0.064206934502942,0.06855199631488945
0.0585,-0.1642365626890365,-0.1703975211478529,0.1703975211478529,0.06453012249476277,0.06869521042183221
0.059,-0.17154495157604,-0.17501498948617236,0.17501498948617236,0.06484805833039674,0.06875067939433516
0.0595,-0.098942163658289,-0.10206274271273229,0.10206274271273229,0.06516074763040237,0.06875105753313251
0.06,0.0281468618908895,0.022374268894268218,0.022374268894268218,0.06546819686815075,0.0688074757576365
0.0605,0.1371249205380314,0.12914035153600617,0.12914035153600617,0.06577041336312058,0.06890793339392969
0.061,0.1690886035659121,0.16233849024242877,0.16233849024242877,0.06606740527402409,0.06898066423214035
0.0615,0.1294770708811873,0.12559743701890505,0.12559743701890505,0.06635918159176758,0.06901802252791321
0.062,0.0763673271525807,0.0730833660849083,0.0730833660849083,0.06664575213225053,0.06904943308846795
0.0625,0.0618503198664346,0.056719832654426344,0.056719832654426344,0.06692712752900744,0.06910293475743529
0.063,0.0889891415857288,0.08267425996126758,0.08267425996126758,0.0672033192256966,0.06918943470914238
0.0635,0.1207318941077534,0.11499083019718283,0.11499083019718283,0.06747433946844048,0.06927744384346975
0.064,0.1202830157046001,0.11522569914616629,0.11522569914616629,0.06774020129802209,0.0693236654484978
0.0645,0.0817754703310056,0.07682413050168704,0.07682413050168704,0.06800091854194212,0.06933035892984415
0.065,0.029869274584148,0.02528289831260468,0.02528289831260468,0.06825650580634147,0.06933122538745977
0.0655,-0.0059197882508529,-0.01003415063612471,0.01003415063612471,0.06850697846779402,0.06933282685126897
0.066,-0.0182223362121672,-0.022765058924289157,0.022765058924289157,0.06875235266497451,0.06933879870225644
0.0665,-0.0247119647552965,-0.03025158271822137,0.03025158271822137,0.0689926452902065,0.06940117795179691
0.067,-0.0440923139641119,-0.049811823512059816,0.049811823512059816,0.06922787398089518,0.06950660208964471
0.0675,-0.0718284765889905,-0.07654138035833262,0.07654138035833262,0.06945805711084953,0.06953767019525868
0.068,-0.0836529208619152,-0.08717871537773925,0.08717871537773925,0.06968321378149864,0.06956880730014264
0.0685,-0.0638283968765447,-0.06715009089004921,0.06715009089004921,0.06990336381300646,0.06987545997344147
0.069,-0.027129711365381,-0.031525965386701466,0.031525965386701466,0.0701185277352893,0.07042279380378501
0.0695,-0.008781766833688,-0.014542466175246991,0.014542466175246991,0.07032872677894036,0.07084701053843219
0.07,-0.0297367170267594,-0.03549501775795412,0.03549501775795412,0.07053398286606578,0.07099457068853314
0.0705,-0.0728867761840919,-0.076755912179222,0.076755912179222,0.07073431860103621,0.07100415512098504
0.071,-0.0975885775628874,-0.09954752944962514,0.09954752944962514,0.07092975726115829,0.07102048317577977
0.0715,-0.079576123591568,-0.08223234936231769,0.08223234936231769,0.07112032278727,0.07111876886244163
0.072,-0.0335595303138991,-0.039202371774054015,0.039202371774054015,0.07130603977426384,0.07134059593787818
0.0725,0.0072907014739254,0.00027220905406982743,0.00027220905406982743,0.07148693346154174,0.07161318262725513
0.073,0.0304612703689496,0.02612270900427284,0.02612270900427284,0.07166302972340585,0.07175072740411564
0.0735,0.0519036655106417,0.051211375826228436,0.051211375826228436,0.07183435505938894,0.0717530244050378
0.074,0.0819921484594838,0.08096993941644165,0.08096993941644165,0.07200093658452832,0.07182083456449784
0.0745,0.0983611622646318,0.09299216557441542,0.09299216557441542,0.072162802019587,0.07195002562585892
0.075,0.0697515004819916,0.06149946177846131,0.06149946177846131,0.07231997968122557,0.07200011301530082
0.0755,0.0056198467147994,0.00027798995157531266,0.00027798995157531266,0.07247249847212836,0.0720002435367668
0.076,-0.0370683439358384,-0.036801614589364665,0.036801614589364665,0.07262038787108736,0.0720093837814931
0.0765,-0.0129721411690941,-0.011979621262598784,0.011979621262598784,0.07276367792304729,0.0720120116356432
0.077,0.0508428613110298,0.04604581942997949,0.04604581942997949,0.0729023992291152,0.07201437957502083
0.0775,0.0750260389985998,0.06567517993135707,0.06567517993135707,0.07303658293653788,0.07202416847420492
0.078,0.0190024983856741,0.012790138908883735,0.012790138908883735,0.07316626072864996,0.07203432730237469
0.0785,-0.0642565950395429,-0.0640898972994404,0.0640898972994404,0.07329146481479597,0.0720541432561285
0.079,-0.0831727183418727,-0.0820196224880597,0.0820196224880597,0.07341222792022876,0.07212508044056416
0.0795,-0.0111190302431633,-0.014807870344991671,0.014807870344991671,0.07352858327598727,0.07228761454828797
0.08,0.0833281955659748,0.0758647297994556,0.0758647297994556,0.07364056460875594,0.07245845679805343
0.0805,0.1112487627456113,0.10494020366438885,0.10494020366438885,0.07374820613070852,0.07251429243100518
0.081,0.0553470606390191,0.0524856471013486,0.0524856471013486,0.07385154252933866,0.07251612645289951
0.0815,-0.0181287189041724,-0.019067880314503183,0.019067880314503183,0.07395060895727942,0.07258851039981722
0.082,-0.0318696665441967,-0.033440175672947665,0.033440175672947665,0.0740454410221144,0.07271118995948032
0.0825,0.0252340432908972,0.021300680252195302,0.021300680252195302,0.07413607477618256,0.07280583197210427
0.083,0.0918941235766948,0.08557251078249051,0.08557251078249051,0.07422254670637908,0.0728514573770143
0.0835,0.1003619832360724,0.0942431699136635,0.0942431699136635,0.07430489372395427,0.07286514539707738
0.084,0.0458427359064478,0.043015230343932384,0.043015230343932384,0.07438315315431264,0.07286653458629545
0.0845,-0.0118207575600917,-0.012416707747963072,0.012416707747963072,0.07445736272681402,0.07286656612145934
0.085,-0.0151625869375177,-0.01798904049357317,0.01798904049357317,0.07452756056457856,0.07286656838679806
0.0855,0.0302921540230848,0.024152825798465245,0.024152825798465245,0.07459378517429731,0.07286743176235849
0.086,0.0676404424250386,0.061959181542828284,0.061959181542828284,0.0746560754360503,0.07286784543745349
0.0865,0.0511274429011142,0.04793352061575043,0.04793352061575043,0.07471447059313335,0.07286890084663462
0.087,-0.0120387861062123,-0.015191953153233455,0.015191953153233455,0.07476901024189525,0.0728705541530834
0.0875,-0.0728673740121936,-0.07770585239646588,0.07770585239646588,0.07481973432158637,0.07288018638811868
0.088,-0.0825861319521859,-0.08730350359657929,0.08730350359657929,0.07486668310421993,0.07300753230619719
0.0885,-0.0325685326009205,-0.035710847018304556,0.035710847018304556,0.07490989718444678,0.07330631835857394
0.089,0.0328944898215222,0.02959513728359873,0.02959513728359873,0.07494941746944463,0.07352694422228044
0.0895,0.0463422563947143,0.04069301770186612,0.04069301770186612,0.0749852851688225,0.0735402527871785
0.09,-0.0246438926074719,-0.03173603728027791,0.03173603728027791,0.07501754178454133,0.07363537016670131
0.0905,-0.1393745156100927,-0.1447307467033179,0.1447307467033179,0.07504622910085114,0.07392994992594773
0.091,-0.2094105711500549,-0.2118038253703318,0.2118038253703318,0.07507138917424551,0.07417224847715077
0.0915,-0.1750660495883933,-0.17729436584277708,0.17729436584277708,0.07509306432343371,0.07425288603627311
0.092,-0.0639187432312226,-0.06949580308130182,0.06949580308130182,0.07511129711933107,0.0742694096140914
0.0925,0.0308073855340985,0.022341637068432958,0.022341637068432958,0.07512613037506824,0.07428483813066906
0.093,0.0366590963087242,0.029333077016377773,0.029333077016377773,0.07513760713602027,0.07431604857610162
0.0935,-0.0319687962583379,-0.035734669764661206,0.035734669764661206,0.07514577066985659,0.07432700966585652
0.094,-0.0937455669755932,-0.09618540780372184,0.09618540780372184,0.07515066445661314,0.07435420820358866
0.0945,-0.0817338828152395,-0.08666558765069465,0.08666558765069465,0.07515233217878783,0.07460471119864465
0.095,-0.0011254979879284,-0.008978737073959214,0.008978737073959214,0.07515081771146025,0.07505426598831433
0.0955,0.0889094193507462,0.08113948115824005,0.08113948115824005,0.0751461651124367,0.0753641572801249
0.096,0.1380426203091971,0.1322643296679351,0.1322643296679351,0.0751384186124215,0.07543023310832041
0.0965,0.1422942966204492,0.1373732027626844,0.1373732027626844,0.07512762260521527,0.07543057098417748
0.097,0.1276390362539985,0.12212986886612777,0.12212986886612777,0.07511382163794122,0.0754488875930761
0.0975,0.1108213109121589,0.10471777620857181,0.10471777620857181,0.07509706040130028,0.07546322882133798
0.098,0.0813437012256978,0.07472188372579133,0.07472188372579133,0.075077383719856,0.0754693993675521
0.0985,0.0201437843321508,0.012612041091386812,0.012612041091386812,0.07505483654235062,0.07547500894033732
0.099,-0.0651823100744762,-0.07314230570814893,0.07314230570814893,0.07502946393205326,0.07548457649284193
0.0995,-0.1275954801649513,-0.13441986740724932,0.13441986740724932,0.07500131105714186,0.07550061983448557
0.1,-0.1123967554077764,-0.11748210999516653,0.11748210999516653,0.0749704231811201,0.07553233494078192
0.1005,-0.0109832264471485,-0.016250484451738635,0.016250484451738635,0.07493684565327079,0.07560416235104125
0.101,0.1158958925710521,0.10798679673418149,0.10798679673418149,0.07490062389914702,0.07572810799057991
0.1015,0.177842678109916,0.16798232269231383,0.16798232269231383,0.07486180341110256,0.07584795167369804
0.102,0.1301908636355434,0.1217988867817105,0.1217988867817105,0.07482042973886278,0.0758959129751961
0.1025,0.0145900190073087,0.0089752804499168,0.0089752804499168,0.07477654848013794,0.07589744377182206
0.103,-0.0775910823709221,-0.08303827644648037,0.08303827644648037,0.07473020527128026,0.07590538599414531
0.1035,-0.0831619801954186,-0.09084316499751516,0.09084316499751516,0.07468144577798667,0.07592063863845663
0.104,-0.011477474828409,-0.020527348919000696,0.020527348919000696,0.07463031568604901,0.07592974858758368
0.1045,0.0764631882182957,0.06791547395696665,0.06791547395696665,0.07457686069215351,0.07593102604692785
0.105,0.1216739201827371,0.11401722570115844,0.11401722570115844,0.0745211264947315,0.07593613675457164
0.1055,0.1055578127065945,0.0984298467419586,0.0984298467419586,0.07446315878486306,0.07599527905493218
0.106,0.0518351233704718,0.044817583556570575,0.044817583556570575,0.07440300323723542,0.07618053225226971
0.1065,0.0007932349306698,-0.007101250539915505,0.007101250539915505,0.07434070550115772,0.07645939096816821
0.107,-0.0199300631646068,-0.029164133548470434,0.029164133548470434,0.07427631119163428,0.076666513823795
0.1075,-0.0078281623166744,-0.01663877785364076,0.01663877785364076,0.07420986588049762,0.07671236656176067
0.108,0.0198139394272895,0.013355583602592187,0.013355583602592187,0.07414141508760341,0.07672632755249358
0.1085,0.0371374796185188,0.031129129152651293,0.031129129152651293,0.07407100427208856,0.07691610160053886
0.109,0.0216979037579013,0.012288453542424381,0.012288453542424381,0.07399867882369392,0.07732813313598667
0.1095,-0.0285765358245273,-0.04020468303150136,0.04020468303150136,0.07392448405415276,0.07779377209963545
0.11,-0.0830065684917786,-0.09095222151231541,0.09095222151231541,0.07384846518864609,0.07811965175944907
0.1105,-0.0977747683746681,-0.10120087142777809,0.10120087142777809,0.0737706673573252,0.07826911023978951
0.111,-0.0649496916851176,-0.07078517340822083,0.07078517340822083,0.0736911355869026,0.07831919414188046
0.1115,-0.0313070075087207,-0.04330282032311408,0.04330282032311408,0.07360991479231146,0.07833443141823232
0.112,-0.0458116117602685,-0.058173531795931155,0.058173531795931155,0.07352704976843433,0.07833725020320238
0.1125,-0.0938554014444367,-0.10046991504337632,0.10046991504337632,0.07344258518190144,0.07833863611861223
0.113,-0.1089923738746807,-0.11230446002412309,0.11230446002412309,0.0733565655629594,0.07835799643810185
0.1135,-0.0533205558534126,-0.059543233049466016,0.059543233049466016,0.07326903529741038,0.07838946657547444
0.114,0.0330968047088331,0.022468226395011632,0.022468226395011632,0.07318003861862275,0.07839724421316895
0.1145,0.0715332277882257,0.060189278298987355,0.060189278298987355,0.07308961959961331,0.07840618899886281
0.115,0.0258477265034252,0.017720876957191933,0.017720876957191933,0.07299782214520187,0.07846544699845434
0.1155,-0.0605071561267268,-0.06528963055983172,0.06528963055983172,0.07290468998423853,0.07852509507489026
0.116,-0.1060304477464422,-0.1112869570760567,0.1112869570760567,0.07281026666190424,0.07853676488036967
0.1165,-0.0648070015507346,-0.0737513988348244,0.0737513988348244,0.07271459553208486,0.07853768544305934
0.117,0.0421638036777691,0.031347892003568925,0.031347892003568925,0.07261771974981912,0.07853926978240372
0.1175,0.1579745320667649,0.14971069648890878,0.14971069648890878,0.07251968226382051,0.07854462957903456
0.118,0.2348976884271239,0.22991554392358185,0.22991554392358185,0.07242052580907346,0.07857267865823747
0.1185,0.2490274299214263,0.24355998057625072,0.24355998057625072,0.07232029289950408,0.07858547520130076
0.119,0.1953361602825742,0.18656016307245019,0.18656016307245019,0.07221902582072566,0.07859089518010456
0.1195,0.0920031902537438,0.0816861454551343,0.0816861454551343,0.07211676662285992,0.07865724248059898
0.12,-0.0128024170558875,-0.020759706007848495,0.020759706007848495,0.07201355711343463,0.07877322378742518
0.1205,-0.0609890092250046,-0.06563351959116102,0.06563351959116102,0.07190943885035946,0.07890418899304917
0.121,-0.0311678774581209,-0.03593973396933329,0.03593973396933329,0.07180445313498157,0.07908746493556884
0.1215,0.0335569086005123,0.02530613878375574,0.02530613878375574,0.07169864100522284,0.07940665561075065
0.122,0.0589222762783642,0.04853601158000867,0.04853601158000867,0.07159204322880082,0.07985683711153777
0.1225,0.0115860152580909,0.0031184204399689816,0.0031184204399689816,0.07148470029653511,0.08023932822083844
0.123,-0.0654542747575027,-0.0706770331027968,0.0706770331027968,0.07137665241574093,0.08038108411966834
0.1235,-0.0954497633740856,-0.09991121368445544,0.09991121368445544,0.07126793950371141,0.08038200449738722
0.124,-0.0443944694468049,-0.050901652925979715,0.050901652925979715,0.07115860118129018,0.08046452450856721
0.1245,0.0467959176466304,0.03788765787385789,0.03788765787385789,0.07104867676653545,0.08068263671770434
0.125,0.1027932600291095,0.09359009018298937,0.09359009018298937,0.07093820526847693,0.08089137066097181
0.1255,0.0833716332816742,0.07639496618871998,0.07639496618871998,0.0708272253809669,0.08096671973285731
0.126,0.0144366210750523,0.009694257248667886,0.009694257248667886,0.07071577547662675,0.08093176147130747
0.1265,-0.0451679053047067,-0.05060930199841141,0.05060930199841141,0.07060389360088987,0.08089411152614612
0.127,-0.0617716729116988,-0.06988004643516832,0.06988004643516832,0.07049161746614252,0.08088452109275565
0.1275,-0.0502533663027354,-0.05896544714977865,0.05896544714977865,0.0703789844459635,0.08084558463769287
0.128,-0.0477497990303425,-0.05415202812485248,0.05415202812485248,0.07026603156946366,0.08079041995932917
0.1285,-0.0747742274783078,-0.08001952734726742,0.08001952734726742,0.0701527955157266,0.08080003231357535
0.129,-0.1206656982725663,-0.1281286873943051,0.1281286873943051,0.07003931260835099,0.08091849146915078
0.1295,-0.1543419048526652,-0.16340879763955848,0.16340879763955848,0.06992561881009576,0.08112570427897331
0.13,-0.1447473757013425,-0.15128307295849475,0.15128307295849475,0.06981174971762909,0.08137366657215889
0.1305,-0.0845902724437073,-0.08841900570522293,0.08841900570522293,0.06969774055638198,0.08162363761283645
0.131,-0.0062702255568346,-0.012481077172601353,0.012481077172601353,0.06958362617550778,0.0818531826145945
0.1315,0.036764143256898,0.0262607546504878,0.0262607546504878,0.06946944104294901,0.0820311219491757
0.132,0.0235873202385193,0.013853862393615718,0.013853862393615718,0.06935521924061291,0.08209097902427052
0.1325,-0.0027358527984234,-0.007700464683534976,0.007700464683534976,0.06924099445965755,0.08204912043077019
0.133,0.0232203433508191,0.0197342165320135,0.0197342165320135,0.0691267999958899,0.08207826216302042
0.1335,0.1123951090726638,0.10549638038993941,0.10549638038993941,0.06901266874527737,0.08224884717678567
0.134,0.1999139946362315,0.19011099726190478,0.19011099726190478,0.06889863319957382,0.08241204377086662
0.1345,0.206535525900485,0.19735041769133185,0.19735041769133185,0.06878472544206149,0.08244249432149729
0.135,0.1155632713502652,0.10831129024406512,0.10831129024406512,0.06867097714340961,0.08236060391624624
0.1355,-0.0112140497697395,-0.01724158125989257,0.01724158125989257,0.06855741955765099,0.08228747342644162
0.136,-0.0875133960145792,-0.0931999448087236,0.0931999448087236,0.06844408351827791,0.08230665915283937
0.1365,-0.07430941696306,-0.08118202670398217,0.08118202670398217,0.06833099943445921,0.08233815449099177
0.137,-0.0071599240121632,-0.01648132011409665,0.01648132011409665,0.06821819728738006,0.08232694530716873
0.1375,0.0435143396673315,0.03348287129282628,0.03348287129282628,0.06810570662670666,0.08234686484123972
0.138,0.0398801432773552,0.03242887121873287,0.03242887121873287,0.06799355656717745,0.08239437903685944
0.1385,0.0044017987934804,-0.0007899245693901782,0.0007899245693901782,0.06788177578532299,0.08240655749405557
0.139,-0.0157589009291265,-0.022624324246874463,0.022624324246874463,0.06777039251631599,0.08241340053845424
0.1395,-0.0008079320636243,-0.010575641242261874,0.010575641242261874,0.0676594345509533,0.08248671717854628
0.14,0.0304238442419845,0.02115946220037062,0.02115946220037062,0.06754892923277139,0.08266037338918657
0.1405,0.0493469141596063,0.042390807570448844,0.042390807570448844,0.0674389034552964,0.08288634095857929
0.141,0.043359358125006,0.035885073149264535,0.035885073149264535,0.06732938365943002,0.08298283774110898
0.1415,0.0179837059561982,0.00847471986377358,0.00847471986377358,0.06722039583097204,0.08278437666325149
0.142,-0.0105658707290574,-0.01915243746459418,0.01915243746459418,0.06711196549828047,0.08245401110773141
0.1425,-0.0247314477254823,-0.031198071914407852,0.031198071914407852,0.06700411773006965,0.08233096323657793
0.143,-0.0198232686306334,-0.02782625724134584,0.02782625724134584,0.06689687713334692,0.08242439162036816
0.1435,-0.0083535355264812,-0.019445857583460638,0.019445857583460638,0.06679026785148827,0.08250293320821202
0.144,-0.0017046600339164,-0.011707265984219919,0.011707265984219919,0.06668431356245277,0.08250284676758052
0.1445,0.0054236035339433,-0.0007911432571080222,0.0007911432571080222,0.06657903747713627,0.08248773776299684
0.145,0.0202991586420239,0.014146026957009327,0.014146026957009327,0.06647446233786365,0.0824822777231864
0.1455,0.0313868027372083,0.021186275938058823,0.021186275938058823,0.06637061041701968,0.08247955829532792
0.146,0.021403833177903,0.009051320956343489,0.009051320956343489,0.06626750351581757,0.08247297617830406
0.1465,-0.0006178814623103,-0.010319032403516363,0.010319032403516363,0.06616516296320486,0.08247196040629523
0.147,-0.0002549322370013,-0.006330021177185249,0.006330021177185249,0.06606360961490532,0.08248546078724259
0.1475,0.0387821097503573,0.03255809491726418,0.03255809491726418,0.06596286385259581,0.08249529950326531
0.148,0.0818400976051026,0.07189335494860821,0.07189335494860821,0.06586294558321694,0.08244670948466909
0.1485,0.0710022741335711,0.058256751509299494,0.058256751509299494,0.06576387423841566,0.08231881673287617
0.149,-0.0073458280029349,-0.01867532913783647,0.01867532913783647,0.06566566877411831,0.0821946745643379
0.1495,-0.0913864723222571,-0.09894738233197474,0.09894738233197474,0.06556834767023213,0.08214640704621558
0.15,-0.0954221491732441,-0.10139485664130841,0.10139485664130841,0.06547192893047353,0.08223822684121235
0.1505,0.0015868979489722,-0.0065953718375588305,0.0065953718375588305,0.06537643008232098,0.0825589930008896
0.151,0.1249965606766063,0.11343121779568434,0.11343121779568434,0.06528186817709071,0.08292613441977639
0.1515,0.1691318646990602,0.15644326760808833,0.15644326760808833,0.06518825979013311,0.08302300730350815
0.152,0.0961136494135701,0.08553844752451888,0.08553844752451888,0.06509562102114799,0.08294332046103738
0.1525,-0.028324201292031,-0.035746920332723905,0.035746920332723905,0.06500396749461688,0.08296323837753061
0.153,-0.0972774602699981,-0.10391284495863062,0.10391284495863062,0.06491331436035051,0.08305956956412819
0.1535,-0.0618013177717129,-0.07101187464629583,0.07101187464629583,0.06482367629414972,0.08309369622625831
0.154,0.0302195411565055,0.017877193150444386,0.017877193150444386,0.06473506749857844,0.08303578180929648
0.1545,0.0888033845568384,0.07625073892641931,0.07625073892641931,0.06464750170384718,0.08293061987389395
0.155,0.0683654475869183,0.058669592547559615,0.058669592547559615,0.06456099216880541,0.08285557807621495
0.1555,-0.0007420273412913,-0.007834622756737648,0.007834622756737648,0.0644755516820415,0.08283660760479945
0.156,-0.0567648332051391,-0.06459820807971532,0.06459820807971532,0.06439119256308863,0.08283914113519716
0.1565,-0.0699521853190097,-0.08109232078663087,0.08109232078663087,0.06430792666373525,0.08282644582242082
0.157,-0.0584622165540962,-0.07139380913655263,0.07139380913655263,0.06422576536943829,0.082781467994041
0.1575,-0.0516148450143016,-0.0624848194693431,0.0624848194693431,0.06414471960083754,0.08274373309331458
0.158,-0.0533445354787577,-0.06114484601761223,0.06114484601761223,0.06406479981536944,0.08278028330786671
0.1585,-0.0477847687555453,-0.055785468572254,0.055785468572254,0.06398601600897871,0.082907831469965
0.159,-0.0289440217036732,-0.039944973996426006,0.039944973996426006,0.06390837771792596,0.08307636791262722
0.1595,-0.0087955448839808,-0.02123126090401814,0.02123126090401814,0.06383189402068967,0.08318415675707243
0.16,0.0038416291391872,-0.0068798038905925375,0.0068798038905925375,0.06375657353996088,0.08316271002306372
0.1605,0.0170782043255041,0.008242046843674217,0.008242046843674217,0.06368242444472862,0.08304589510684589
0.161,0.0394570623896085,0.03046208089461984,0.03046208089461984,0.06360945445245446,0.08286403934679122
0.1615,0.0574014597372377,0.04733392871807196,0.04733392871807196,0.06353767083133409,0.08263436041479615
0.162,0.040897231447087,0.029944814071605874,0.029944814071605874,0.06346708040264366,0.0824499294048619
0.1625,-0.0242871464980106,-0.035981602286428695,0.035981602286428695,0.06339768954316868,0.08235684557697394
0.163,-0.1098633533693568,-0.12113181775976764,0.12113181775976764,0.06332950418771291,0.08233444758448913
0.1635,-0.153735117676109,-0.16287309719182785,0.16287309719182785,0.06326252983168477,0.08236807137099283
0.164,-0.107225814879932,-0.11513507483479753,0.11513507483479753,0.06319677153375858,0.08237617538824676
0.1645,0.0162252218174345,0.006352657020869498,0.006352657020869498,0.06313223391860809,0.082299605942531
0.165,0.1439496723787088,0.13123360925460809,0.13123360925460809,0.06306892117970972,0.08216873597712335
0.1655,0.2056688555407776,0.19303322956775956,0.19303322956775956,0.06300683708221336,0.08199360054660258
0.166,0.1936276867981082,0.18374681965027878,0.18374681965027878,0.0629459849658784,0.0817790554927895
0.1665,0.1580695057869302,0.1501132702312631,0.1501132702312631,0.06288636774807306,0.08159180110264745
0.167,0.1458057234726587,0.13701943752556373,0.13701943752556373,0.06282798792683517,0.08150187011493312
0.1675,0.1502911644234814,0.13912986306613112,0.13912986306613112,0.06277084758399304,0.08147728276585274
0.168,0.1247694282930948,0.11203224013612487,0.11203224013612487,0.06271494838834521,0.08146036918976292
0.1685,0.0411817910846599,0.029227635016882705,0.029227635016882705,0.06266029159889829,0.08147568609408495
0.169,-0.06883404325146,-0.07820756230642031,0.07820756230642031,0.0626068780681625,0.08151506903127805
0.1695,-0.1356074604472334,-0.1434730181057639,0.1434730181057639,0.06255470824550453,0.08152290668515766
0.17,-0.1161101412525426,-0.12562744767205847,0.12562744767205847,0.06250378218055781,0.08151296069093567
0.1705,-0.0353613352817426,-0.047654345230461005,0.047654345230461005,0.06245409952668976,0.08153025099850283
0.171,0.0384209677596402,0.0259285354570665,0.0259285354570665,0.06240565954452661,0.08156809309567367
0.1715,0.0562266162346034,0.04604687136605485,0.04604687136605485,0.06235846110553565,0.0815697414980611
0.172,0.0227838712365302,0.014042793725967347,0.014042793725967347,0.06231250269566535,0.08149480329643423
0.1725,-0.0228043088645892,-0.03241608751917549,0.03241608751917549,0.06226778241904367,0.08137836916337916
0.173,-0.0477908715879847,-0.058873147458086784,0.058873147458086784,0.062224298001734867,0.08135234609994181
0.1735,-0.0468839990993673,-0.058376495037197676,0.058376495037197676,0.06218204679555505,0.08142329248116087
0.174,-0.0346021428668795,-0.045295991694313364,0.045295991694313364,0.06214102578194645,0.08126192191628145
0.1745,-0.0253337488402454,-0.03498176338902323,0.03498176338902323,0.062101231575910534,0.0807681676528206
0.175,-0.0213466364010113,-0.031129611693155056,0.031129611693155056,0.06206266042999989,0.0803835601907269
0.1755,-0.0157652303778742,-0.026808769681616253,0.026808769681616253,0.06202530823836871,0.08030777969625265
0.176,-0.0009516453534763,-0.012364067172954928,0.012364067172954928,0.06198917054088175,0.08031515326162056
0.1765,0.0259302490326267,0.015813505853795547,0.015813505853795547,0.06195424252728154,0.08031429438204121
0.177,0.0575003941537534,0.04834444279719871,0.04834444279719871,0.06192051904141334,0.08031124774067581
0.1775,0.0736041945163729,0.06346838213364282,0.06346838213364282,0.06188799458550753,0.08029449492711407
0.178,0.0529098087408934,0.041185161910732224,0.041185161910732224,0.061856663324518585,0.08030565458371818
0.1785,-0.0042105473500368,-0.01580713817403518,0.01580713817403518,0.06182651909051995,0.08029334170927568
0.179,-0.0653607562100278,-0.07520552145463483,0.07520552145463483,0.06179755538715403,0.08017521814779935
0.1795,-0.0870074381491763,-0.09595113099593583,0.09595113099593583,0.06176976539413626,0.08002920777113497
0.18,-0.0527004650152792,-0.06278110086948896,0.06278110086948896,0.061743141971812354,0.07994538644938425
0.1805,0.0093033365494637,-0.002167942685545248,0.002167942685545248,0.0617176776657676,0.07991039307887157
0.181,0.048928117051884,0.03760743539829852,0.03760743539829852,0.061693364711487335,0.07994558154869442
0.1815,0.0356241002583806,0.025363271105264908,0.025363271105264908,0.06167019503906741,0.08008062768950952
0.182,-0.0192297378829717,-0.029061378647319683,0.029061378647319683,0.061648160277973686,0.08022195906302727
0.1825,-0.0738920192574346,-0.08423614669312068,0.08423614669312068,0.061627251761849265,0.08026751624010223
0.183,-0.0883343329865265,-0.09913560445971673,0.09913560445971673,0.06160746053336837,0.0802205648863036
0.1835,-0.051366925390832,-0.061741324422367724,0.061741324422367724,0.06158877734913544,0.08004800887809096
0.184,0.015038754508778,0.005098761684765633,0.005098761684765633,0.061571192684627955,0.07968846213366176
0.1845,0.0731021707957921,0.06229288969713298,0.06229288969713298,0.06155469673918174,0.07935329425558885
0.185,0.0948792277358448,0.08317020044617446,0.08317020044617446,0.06153927944101732,0.07934047931784023
0.1855,0.0813358300440991,0.07081226336248735,0.07081226336248735,0.06152493045230586,0.07944420334507458
0.186,0.059722816650389,0.0507710338492807,0.0507710338492807,0.061511639174273346,0.07927117132226548
0.1865,0.0566053584766004,0.046565954168668065,0.046565954168668065,0.0614993947523416,0.07893824330523931
0.187,0.0728672509464152,0.060792196257190526,0.060792196257190526,0.061488186081304554,0.07874900514693324
0.1875,0.0887784486593879,0.07733784093288046,0.07733784093288046,0.061478001810538536,0.07869594666435728
0.188,0.0874762662882114,0.0780587923120371,0.0780587923120371,0.06146883034924496,0.07865876785070453
0.1885,0.0662303000520982,0.05659666832130848,0.05659666832130848,0.06146065987172408,0.07857250032816042
0.189,0.0330326430301132,0.021541565933948695,0.021541565933948695,0.061453478322678355,0.07841301299225692
0.1895,0.004058056066387,-0.00775062532071432,0.00775062532071432,0.061447273422543934,0.0782559113529143
0.19,-0.0001095828323616,-0.010537206966219712,0.010537206966219712,0.0614420326728489,0.07818256606976476
0.1905,0.0300149818774746,0.0203485415201562,0.0203485415201562,0.061437743361596776,0.07818476884863057
0.191,0.0760052689131936,0.06578181977166798,0.06578181977166798,0.061434392568673654,0.07825466248776528
0.1915,0.0966624183296628,0.08556936645557778,0.08556936645557778,0.06143196717127733,0.078365083722029
0.192,0.0582393933775925,0.04647495097558309,0.04647495097558309,0.061430453849366524,0.07843038235829718
0.1925,-0.0347015824502544,-0.04653693683416163,0.04653693683416163,0.06142983909112819,0.07842009915463238
0.193,-0.1356505121075779,-0.14622065062028522,0.14622065062028522,0.061430109198460946,0.0783518591229702
0.1935,-0.1869607910507306,-0.19594639653537962,0.19594639653537962,0.06143125029247268,0.07827192787532578
0.194,-0.1634108214403143,-0.17310259256045404,0.17310259256045404,0.061433248318990205,0.07825900565419969
0.1945,-0.0896794265765456,-0.10229898586107106,0.10229898586107106,0.0614360890540793,0.0782876989295023
0.195,-0.0122659088311791,-0.026086176375404158,0.026086176375404158,0.06143975810957339,0.0782923845121382
0.1955,0.0451099227674444,0.034051329462387286,0.034051329462387286,0.06144424093860954,0.07827927166682343
0.196,0.0915786321967839,0.08357707217945831,0.08357707217945831,0.06144952284117088,0.07821927391192451
0.1965,0.1349524121245169,0.1257007244653034,0.1257007244653034,0.06145558896963432,0.07810200940625678
0.197,0.1527660413201221,0.13958384081439176,0.13958384081439176,0.06146242433432296,0.07801557631320906
0.1975,0.113603099612521,0.09929490675536713,0.09929490675536713,0.06147001380906224,0.07800186884593947
0.198,0.0242980538515689,0.012837995369972884,0.012837995369972884,0.06147834213673915,0.07802230309006701
0.1985,-0.0609237778083013,-0.06977021667952824,0.06977021667952824,0.06148739393486396,0.0780420469277016
0.199,-0.0867057201316645,-0.09636884875515919,0.09636884875515919,0.06149715370113389,0.0780335476935885
0.1995,-0.0476594790065256,-0.06004201301727654,0.06004201301727654,0.06150760581899865,0.07796436946078211
0.2,0.0104929398611931,-0.0030655454359154524,0.0030655454359154524,0.061518734563227234,0.07785702235002318
0.2005,0.0379925729789426,0.025654270956614794,0.025654270956614794,0.06153052410547598,0.07780927552929455
0.201,0.0246522818426067,0.013756220804633658,0.013756220804633658,0.06154295851985735,0.07782512297842796
0.2015,-0.002342421687114,-0.01305844100885896,0.01305844100885896,0.06155602178850937,0.07784041537191094
0.202,-0.0154435291959679,-0.02655163672430515,0.02655163672430515,0.06156969780716505,0.07786348448003712
0.2025,-0.015205518622876,-0.027050559190043382,0.027050559190043382,0.061583970390721374,0.07784175414092777
0.203,-0.0245421568940556,-0.03778392825689726,0.03778392825689726,0.06159882327880711,0.07778681280493921
0.2035,-0.0579252817191833,-0.07151107670551578,0.07151107670551578,0.06161424014134852,0.07779689877014943
0.204,-0.096843606907894,-0.10833279402840873,0.10833279402840873,0.061630204584131924,0.0777853312444814
0.2045,-0.1014819589008413,-0.11119519880264819,0.11119519880264819,0.06164670015436215,0.07777878071944722
0.205,-0.052241287713624,-0.06361857124284476,0.06361857124284476,0.06166371034621545,0.07784931725759153
0.2055,0.025873274480112,0.011532323347363885,0.011532323347363885,0.061681218606386076,0.07778644130573807
0.206,0.0867725376791691,0.07246808377299334,0.07246808377299334,0.0616992083396252,0.07766770957827984
0.2065,0.1059315927964052,0.0944068410107569,0.0944068410107569,0.06171766291427135,0.07773838346277953
0.207,0.0931294702521703,0.08298199752551495,0.08298199752551495,0.061736565667771366,0.07781846292214177
0.2075,0.0696394706541532,0.05764404914927578,0.05764404914927578,0.061755899912190874,0.07781561602622541
0.208,0.0460154150427455,0.03157983361495155,0.03157983361495155,0.06177564893971348,0.07781075011791892
0.2085,0.0243692764823875,0.010061035696317071,0.010061035696317071,0.06179579602812763,0.07771665046536902
0.209,0.0103556055476939,-0.0015158689280655576,0.0015158689280655576,0.06181632444630035,0.07763005789412727
0.2095,0.0107849124621567,0.00040628494460582653,0.00040628494460582653,0.061837217459636974,0.07768440045171271
0.21,0.0200272622147571,0.007931682483962452,0.007931682483962452,0.061858458335525765,0.07775706562970498
0.2105,0.0205517466872119,0.005490312133254759,0.005490312133254759,0.06188003034876633,0.07781133292289773
0.211,0.0064060240924095,-0.00876960375549989,0.00876960375549989,0.06190191678698053,0.07789948715763499
0.2115,0.0010099588181318,-0.010976155538033713,0.010976155538033713,0.06192410095600423,0.07804605827710599
0.212,0.0364186806236087,0.026494389872766068,0.026494389872766068,0.06194656618525819,0.07821698655375844
0.2125,0.1084442279600914,0.09637999137141004,0.09637999137141004,0.06196929583309607,0.07824538742740367
0.213,0.1632463758940504,0.1478454223981406,0.1478454223981406,0.061992273292127406,0.07824607045120316
0.2135,0.1426027208031754,0.12726982238092513,0.12726982238092513,0.06201548199451336,0.07854970051917064
0.214,0.0437800974784634,0.03128300925244265,0.03128300925244265,0.06203890541723283,0.07894947925365244
0.2145,-0.0724522874398388,-0.08366289376123628,0.08366289376123628,0.06206252708731674,0.07904868367305887
0.215,-0.1348214537782003,-0.14742753553189153,0.14742753553189153,0.062086330587048294,0.07903075938887322
0.2155,-0.120154845980852,-0.133949520534891,0.133949520534891,0.06211029955912741,0.07907466777627248
0.216,-0.0638953131025622,-0.07735838855472836,0.07735838855472836,0.06213441771179737,0.07882112260904175
0.2165,-0.0215243704775926,-0.035029414139610505,0.035029414139610505,0.062158668823931916,0.0783005691489067
0.217,-0.019483405865875,-0.03385241257291864,0.03385241257291864,0.062183036750081404,0.07818975380419001
0.2175,-0.0344297168279807,-0.04815547666564049,0.04815547666564049,0.06220750542547647,0.07855327634155033
0.218,-0.0170593020001737,-0.028541985765116868,0.028541985765116868,0.06223205887098799,0.07882222550645998
0.2185,0.0562303596891289,0.04496616346923778,0.04496616346923778,0.062256681198041855,0.07887628620857114
0.219,0.1508595706427058,0.13659182891110477,0.13659182891110477,0.062281356613487326,0.07886061684408499
0.2195,0.1996818788373755,0.18341198163078543,0.18341198163078543,0.062306069424417396,0.07879918750884268
0.22,0.1668086560290965,0.15266525390337704,0.15266525390337704,0.06233080404293964,0.07886692725376407
0.2205,0.0816140453251138,0.07058280326026645,0.07058280326026645,0.0623555449908962,0.07919028646391844
0.221,0.0061850019737365,-0.005048377139257758,0.005048377139257758,0.0623802769045316,0.07962522962485934
0.2215,-0.0233091825561219,-0.03717257075853006,0.03717257075853006,0.06240498453910746,0.07998481372635685
0.222,-0.0176057721797576,-0.03289578323266546,0.03289578323266546,0.06242965277346313,0.08010712468919853
0.2225,-0.0071547680356663,-0.021579350748594548,0.021579350748594548,0.062454266614521727,0.07998262496018911
0.223,-0.0079760747994387,-0.02057587962790322,0.02057587962790322,0.0624788112017406,0.07986026406437799
0.2235,-0.0154620999750604,-0.02687297675831584,0.02687297675831584,0.06250327181150547,0.07987657085017455
0.224,-0.0225025238639597,-0.034801631339707303,0.034801631339707303,0.06252763386146727,0.07990552739065813
0.2245,-0.0340836508875506,-0.04893887112996216,0.04893887112996216,0.06255188291482042,0.07984660460321115
0.225,-0.0580316189804306,-0.07367409041223437,0.07367409041223437,0.0625760046845214,0.07967140662421406
0.2255,-0.0840350485192576,-0.09684259143148008,0.09684259143148008,0.06259998503744618,0.07950116423089529
0.226,-0.0850574337027046,-0.09530328762088992,0.09530328762088992,0.06262380999848499,0.07960947830736358
0.2265,-0.0481594571598777,-0.060323433435550744,0.060323433435550744,0.06264746575457304,0.07989086055591271
0.227,0.0050545403132881,-0.010778793029586571,0.010778793029586571,0.06267093865865571,0.07996439661450454
0.2275,0.0400832241304609,0.02455251334692362,0.02455251334692362,0.06269421523358672,0.07988620883612053
0.228,0.0457454961814641,0.03402755024184885,0.03402755024184885,0.06271728217595786,0.07989279204862572
0.2285,0.0365798257296226,0.026299708197545582,0.026299708197545582,0.06274012635985908,0.07990175941279044
0.229,0.0230538729217374,0.009848755392665328,0.009848755392665328,0.0627627348405673,0.07984635751611342
0.2295,-0.003969696591357,-0.01969960240423849,0.01969960240423849,0.06278509485816222,0.07984609257624217
0.23,-0.0528798102976234,-0.06702825310272807,0.06702825310272807,0.06280719384106768,0.07989743628175083
0.2305,-0.1073596982404344,-0.11872458802222358,0.11872458802222358,0.06282901940951646,0.07988564970975737
0.231,-0.1342773506707176,-0.14588518256508534,0.14588518256508534,0.06285055937893655,0.0798209302528917
0.2315,-0.1120217881799067,-0.12592830236079952,0.12592830236079952,0.06287180176325684,0.07979577484130543
0.232,-0.044758260644868,-0.05929941657296508,0.05929941657296508,0.06289273477813015,0.07982520836000903
0.2325,0.0456477953884411,0.032727329455654736,0.032727329455654736,0.06291334684407171,0.07986950118817768
0.233,0.1324770974191037,0.1207421751747943,0.1207421751747943,0.0629336265895113,0.07991102581779448
0.2335,0.1908705127749282,0.17826032771268174,0.17826032771268174,0.06295356285375744,0.07993471284646433
0.234,0.2040667051614902,0.1900405261952537,0.1900405261952537,0.06297314468987227,0.07993120092641814
0.2345,0.1732963701521002,0.1593879128534794,0.1593879128534794,0.06299236136745534,0.07992953942906814
0.235,0.1206938132992368,0.10810556579272002,0.10810556579272002,0.06301120237533565,0.07993394845474817
0.2355,0.0745078501847401,0.06262009783304115,0.06262009783304115,0.06302965742417072,0.07990265446645094
0.236,0.0470680716115315,0.034546885418080986,0.034546885418080986,0.06304771644895207,0.07985261451077735
0.2365,0.0284960529304358,0.014859740599833866,0.014859740599833866,0.06306536961141716,0.07982523519267093
0.237,0.0035818844657744,-0.0104196815019739,0.0104196815019739,0.0630826073023673,0.07980642605688233
0.2375,-0.0257437323327544,-0.03894673843369528,0.03894673843369528,0.06309942014389182,0.07976402812291397
0.238,-0.0374726771433351,-0.04966318653611276,0.04966318653611276,0.06311579899149813,0.07963784374551433
0.2385,-0.0125938754344969,-0.02469241008720839,0.02469241008720839,0.06313173493614764,0.07948016401609816
0.239,0.0392057540359414,0.026481815516922743,0.026481815516922743,0.06314721930619702,0.07943944362251498
0.2395,0.0815747914097782,0.068175873085154,0.068175873085154,0.06316224366924436,0.0794465692235279
0.24,0.0824505084717248,0.06842581330648576,0.06842581330648576,0.06317679983387967,0.0794301790826723
0.2405,0.0441815176000649,0.030272771213695454,0.030272771213695454,0.06319087985133887,0.07947762738649317
0.241,0.0037476913688245,-0.008502848889240817,0.008502848889240817,0.06320447601706078,0.07950815298696604
0.2415,-0.0003875654142988,-0.011154891309637212,0.011154891309637212,0.0632175808721461,0.07946639316402912
0.242,0.0326876083244828,0.020517526100325853,0.020517526100325853,0.06323018720471744,0.07949674292115246
0.2425,0.0622259051664388,0.04694143064977751,0.04694143064977751,0.0632422880511795,0.07951751222198451
0.243,0.0473733458337085,0.03171025925162529,0.03171025925162529,0.06325387669737828,0.07923616784886894
0.2435,-0.0084070175657331,-0.020638466463441814,0.020638466463441814,0.06326494667965812,0.07862767519687314
0.244,-0.0625406203867681,-0.07222530526609908,0.07222530526609908,0.06327549178581478,0.07802151048189854
0.2445,-0.0836608570319486,-0.09554839405250652,0.09554839405250652,0.06328550605594337,0.0777586645920579
0.245,-0.0858208325091944,-0.10161263402513811,0.10161263402513811,0.06329498378317941,0.07782028774013977
0.2455,-0.1045451859526258,-0.12032470503601597,0.12032470503601597,0.06330391951433119,0.07789492854386415
0.246,-0.1468916928666234,-0.15904377596989874,0.15904377596989874,0.06331230805040182,0.07786338317393339
0.2465,-0.1789123304272437,-0.18933763251704316,0.18933763251704316,0.06332014444699935,0.0778475959561851
0.247,-0.1621495836537209,-0.17497908428261622,0.17497908428261622,0.06332742401463355,0.07784333172950464
0.2475,-0.0912527386991139,-0.10669791685350724,0.10669791685350724,0.06333414231889802,0.07782516853740468
0.248,0.006003331700214,-0.008601243072454079,0.008601243072454079,0.0633402951805369,0.07784316753608615
0.2485,0.0935713079270398,0.08146489235196676,0.08146489235196676,0.06334587867539555,0.07780817548773651
0.249,0.1444636285597824,0.1325672722266658,0.1325672722266658,0.06335088913425499,0.07773714814581847
0.2495,0.1439289606091743,0.12985757523086078,0.12985757523086078,0.06335532314254984,0.07781924825563069
0.25,0.0932812230119216,0.07811706368737555,0.07811706368737555,0.06335917753997,0.07800441746874455
0.2505,0.0165753431913709,0.0029000734145180895,0.0029000734145180895,0.06336244941994593,0.07817218836738021
0.251,-0.0457955668422004,-0.05803258684199306,0.05803258684199306,0.06336513612901767,0.07835977374759313
0.2515,-0.0615326144127127,-0.07473080887252681,0.07473080887252681,0.06336723526608834,0.07849326159966702
0.252,-0.027630641725546,-0.04246138089914756,0.04246138089914756,0.0633687446815619,0.07847990600629393
0.2525,0.0333335563564321,0.018817035358724865,0.018817035358724865,0.06336966247636593,0.0784222244963095
0.253,0.0943710211207319,0.0811208092275474,0.0811208092275474,0.06336998700085968,0.07840914686520135
0.2535,0.1391948439054519,0.1257430636747308,0.1257430636747308,0.06336971685362737,0.07841634929721476
0.254,0.1640934786764131,0.1494923647791097,0.1494923647791097,0.06336885088015728,0.07839690904343995
0.2545,0.1743786369958242,0.15967801973105925,0.15967801973105925,0.06336738817140676,0.07828932613287909
0.255,0.1773351337366304,0.1634618649637076,0.1634618649637076,0.06336532806225316,0.07807495956641887
0.2555,0.1717885450419887,0.15825117414814416,0.15825117414814416,0.06336267012983153,0.07786236969093646
0.256,0.1450143922435787,0.13092687905155398,0.13092687905155398,0.06335941419175954,0.07777618189168906
0.2565,0.0854180446477482,0.07032609621684371,0.07032609621684371,0.0633555603042508,0.07777464104321828
0.257,0.0007260581506527,-0.015012295680862833,0.015012295680862833,0.06335110876011796,0.07776631246883901
0.2575,-0.07802177977262,-0.09290600157096394,0.09290600157096394,0.06334606008666716,0.07777897663265185
0.258,-0.1156672757674251,-0.12866818283213377,0.12866818283213377,0.06334041504348566,0.07787246380598799
0.2585,-0.1032871007137824,-0.1162229165219214,0.1162229165219214,0.06333417462012472,0.07801086960512414
0.259,-0.0705090025173402,-0.08628359455961497,0.08628359455961497,0.06332734003367964,0.07793297251181149
0.2595,-0.0587287716735114,-0.07661953935663589,0.07661953935663589,0.06331991272626893,0.07746805624689053
0.26,-0.075773439728112,-0.09164439722713177,0.09164439722713177,0.06331189436241504,0.07703236359752393
0.2605,-0.0843996215481365,-0.09674747486713028,0.09674747486713028,0.0633032868263288,0.07697115725465982
0.261,-0.0452695739511465,-0.057793609263010984,0.057793609263010984,0.06329409221910004,0.07697605926090074
0.2615,0.0328965371087818,0.016587315002214872,0.016587315002214872,0.06328431285579707,0.0769018163913309
0.262,0.096833136928854,0.07833555121665116,0.07833555121665116,0.06327395126247749,0.07691323744987959
0.2625,0.1018477058879481,0.08547795765477187,0.08547795765477187,0.06326301017311321,0.07692682027149166
0.263,0.0518025764522661,0.03867284041757887,0.03867284041757887,0.06325149252643206,0.07695549193099319
0.2635,-0.0150063262073464,-0.028135325073672755,0.028135325073672755,0.06323940146267902,0.07713040319794957
0.264,-0.068101891772817,-0.08432023646881201,0.08432023646881201,0.06322674032029943,0.07729264709793744
0.2645,-0.1030752333779536,-0.12132263950893528,0.12132263950893528,0.0632135126325469,0.07733133551332566
0.265,-0.1227114312010193,-0.1393663024536629,0.1393663024536629,0.06319972212401868,0.07733406871062572
0.2655,-0.1164796639030166,-0.13041175926524526,0.13041175926524526,0.0631853727071208,0.07732909339587253
0.266,-0.0707152076384744,-0.08471803318938191,0.08471803318938191,0.06317046847846594,0.07730593407425672
0.2665,0.0053369107856933,-0.011154479588875582,0.011154479588875582,0.06315501371520682,0.07731789253715814
0.267,0.0767847398856466,0.05911513242629965,0.05911513242629965,0.06313901287130803,0.07747075120555734
0.2675,0.1107225334893293,0.09437384832522377,0.09437384832522377,0.06312247057375957,0.07769095895500806
0.268,0.1013381220804681,0.08635951687370577,0.08635951687370577,0.06310539161873537,0.07776768520254582
0.2685,0.0672705531075354,0.05206364247745364,0.05206364247745364,0.06308778096769992,0.07775782901662096
0.269,0.031788682164365,0.015641097333002375,0.015641097333002375,0.06306964374346655,0.07779247681761654
0.2695,0.0086766042974997,-0.008053190388086415,0.008053190388086415,0.06305098522621032,0.0778123594680554
0.27,0.0015922924325427,-0.015111694177880467,0.015111694177880467,0.06303181084943899,0.07781257253351162
0.2705,0.0097744761983695,-0.006289651490560837,0.006289651490560837,0.0630121261959254,0.07781421066274387
0.271,0.0295995147467191,0.014212612364268542,0.014212612364268542,0.06299193699360428,0.07781339641136839
0.2715,0.049782275511704,0.03423310835998991,0.03423310835998991,0.06297124911143633,0.07788170986786924
0.272,0.0516368409765146,0.03527495679045416,0.03527495679045416,0.0629500685552427,0.07800544111303238
0.2725,0.0242864109278635,0.007414743466343281,0.007414743466343281,0.0629284014635122,0.0781046903908247
0.273,-0.0168690421779594,-0.033652788259063864,0.033652788259063864,0.06290625410318369,0.07815067439113314
0.2735,-0.0326901305160806,-0.0488965302571926,0.0488965302571926,0.06288363286540617,0.07812926393472673
0.274,0.0096774487371784,-0.005461966308820215,0.005461966308820215,0.0628605442612784,0.07812069429557289
0.2745,0.1019170513207013,0.08732408791406242,0.08732408791406242,0.06283699491757049,0.07812345782572491
0.275,0.1874671719287626,0.171443968071554,0.171443968071554,0.06281299157242891,0.07801285656298038
0.2755,0.1975642294128097,0.17938592518167604,0.17938592518167604,0.06278854107106711,0.07800513591401614
0.276,0.109432574327551,0.09170458792732772,0.09170458792732772,0.06276365036144335,0.07822099272657167
0.2765,-0.0250880280186898,-0.03977068217529797,0.03977068217529797,0.06273832648992773,0.07819601914071661
0.277,-0.1167592609838039,-0.12996364576417718,0.12996364576417718,0.06271257659696058,0.07789930548197602
0.2775,-0.1130683612149156,-0.12834333167421103,0.12834333167421103,0.0626864079127045,0.07781499492857114
0.278,-0.0364344113408744,-0.054248521321670275,0.054248521321670275,0.06265982775269255,0.0778230878084876
0.2785,0.047576739884513,0.029947148121612914,0.029947148121612914,0.06263284351347552,0.07768530647845472
0.279,0.0912148381937531,0.07581757350478999,0.07581757350478999,0.06260546266827074,0.0776400124212653
0.2795,0.0936149821093331,0.07980423532681323,0.07980423532681323,0.06257769276261563,0.0776810437332856
0.28,0.0813912621046848,0.06695847296375351,0.06695847296375351,0.0625495414100287,0.07762635465298162
0.2805,0.0724937010036329,0.056060987813455324,0.056060987813455324,0.06252101628768128,0.0775820513420583
0.281,0.0620272455618453,0.044749795734274136,0.044749795734274136,0.06249212513208255,0.07758810114115064
0.2815,0.0372246086287507,0.021642517273914585,0.021642517273914585,0.062462875734781265,0.07753981191080525
0.282,-0.0034361477801627,-0.01690834616181886,0.01690834616181886,0.0624332759380869,0.0774551101396595
0.2825,-0.0489975826406532,-0.06315732726253621,0.06315732726253621,0.06240333363081323,0.07740338232951323
0.283,-0.0858751392229319,-0.1028026221653359,0.1028026221653359,0.06237305674404728,0.07738762068333149
0.2835,-0.1010532955510699,-0.11847282573370584,0.11847282573370584,0.062342453246946455,0.07736964227525901
0.284,-0.081654499121596,-0.09583757239832136,0.09583757239832136,0.06231153114256654,0.07733419800138627
0.2845,-0.0267452325779238,-0.03850755421862133,0.03850755421862133,0.062280298463723294,0.07732511518752096
0.285,0.0365711922709997,0.02221214594215741,0.02221214594215741,0.06224876326889054,0.07740830181846674
0.2855,0.0641464482515897,0.04548280453364042,0.04548280453364042,0.06221693363813759,0.07758444702990355
0.286,0.0377379002164998,0.01991276638712808,0.01991276638712808,0.06218481766910899,0.07773977740952677
0.2865,-0.0073457953146336,-0.01966022474056011,0.01966022474056011,0.062152423473049515,0.0777678654322917
0.287,-0.0151438557678416,-0.025482982440676635,0.025482982440676635,0.062119759170877434,0.07774660050717352
0.2875,0.0268252024052762,0.011663569961815303,0.011663569961815303,0.062086832889308566,0.07782861383455826
0.288,0.0723869902763708,0.05294929079141896,0.05294929079141896,0.06205365275703402,0.07791940664675417
0.2885,0.0729687225729096,0.05616499317804367,0.05616499317804367,0.062020226900953955,0.077762109241851
0.289,0.0325281934532094,0.02080311544223314,0.02080311544223314,0.06198656344246977,0.07742057310330167
0.2895,-0.0066969327436266,-0.018313353603246516,0.018313353603246516,0.061952670493836993,0.0772491700422556
0.29,-0.0191992586087987,-0.03476790567046371,0.03476790567046371,0.061918556154580945,0.0772539744280461
0.2905,-0.0174994734928845,-0.03500774133402951,0.03500774133402951,0.06188422850797732,0.0770353339498957
0.291,-0.0226428528978586,-0.03837002476156075,0.03837002476156075,0.06184969561759957,0.07656366348849947
0.2915,-0.0315034096713104,-0.04501014424639467,0.04501014424639467,0.06181496552393496,0.07624340922710142
0.292,-0.0206988840238614,-0.03403044901060208,0.03403044901060208,0.06178004624107091,0.0760968052775909
0.2925,0.0225724266383196,0.007944023392128685,0.007944023392128685,0.061744945753453434,0.07587149219031658
0.293,0.0797845291035741,0.06403319188950679,0.06403319188950679,0.06170967201271895,0.07564447828217945
0.2935,0.1127301246984539,0.09697095891962984,0.09697095891962984,0.061674232934601086,0.07555148628111767
0.294,0.0957786639354665,0.08093566050058354,0.08093566050058354,0.06163863639591372,0.07554454888697333
0.2945,0.0377033660814339,0.02349523061196815,0.02349523061196815,0.06160289023161154,0.07552339441508944
0.295,-0.0263997248317252,-0.04120556437851281,0.04120556437851281,0.06156700223192934,0.07539630786975551
0.2955,-0.0636676240825539,-0.0792961815648526,0.0792961815648526,0.06153098013960133,0.075252732337351
0.296,-0.0658271596050007,-0.080877813787391,0.080877813787391,0.061494831647161706,0.07522378197093138
0.2965,-0.0493293572454136,-0.06350358974535018,0.06350358974535018,0.06145856439432774,0.07521746419092207
0.297,-0.0389087163268844,-0.05427307591344152,0.05427307591344152,0.06142218596546655,0.0751934731452294
0.2975,-0.0471542647873172,-0.06432298453871957,0.06432298453871957,0.061385703887146904,0.07524421862463715
0.298,-0.0613388302691505,-0.07733209429347325,0.07733209429347325,0.061349125625777115,0.07528307055376286
0.2985,-0.0525252530834995,-0.06566404590736123,0.06566404590736123,0.061312458585330507,0.07523732357594382
0.299,-0.0083647428884016,-0.02190016638277984,0.02190016638277984,0.06127571010515954,0.07533324026970906
0.2995,0.0448175413754303,0.027659067999453772,0.027659067999453772,0.06123888745790003,0.07566786065068491
0.3,0.0653576436467638,0.04674641576941352,0.04674641576941352,0.061201997847466695,0.07594496095710619
0.3005,0.0428911133943451,0.027124420817859773,0.027124420817859773,0.06116504840714125,0.07599862244808067
0.301,0.0104827438383007,-0.00247976803554901,0.00247976803554901,0.06112804619775431,0.07598988527651164
0.3015,0.0063405447449839,-0.00800017555354587,0.00800017555354587,0.06109099820596219,0.07600100300693624
0.302,0.0315560398590628,0.01378903265643288,0.01378903265643288,0.061053911342619546,0.07599771782458266
0.3025,0.0527417504682408,0.0346220620386829,0.0346220620386829,0.06101679244124871,0.07599071095679336
0.303,0.0423961303729876,0.02706316184369258,0.02706316184369258,0.06097964825660645,0.07596866883284968
0.3035,0.007026959960594,-0.007373241569155836,0.007373241569155836,0.060942485463348565,0.07595206836064966
0.304,-0.0237653172576372,-0.040413210036245054,0.040413210036245054,0.06090531065479276,0.07594885893806363
0.3045,-0.0239550608519096,-0.041637258879363245,0.041637258879363245,0.060868130341779944,0.07588209010734431
0.305,0.0139336632888526,-0.0019372003720194552,0.0019372003720194552,0.060830950951634065,0.07581650983307263
0.3055,0.0743936661707479,0.059294706541604784,0.059294706541604784,0.060793778827220334,0.07583141088335063
0.306,0.1227877637087976,0.10584574285750267,0.10584574285750267,0.06075662022610179,0.07583427338729794
0.3065,0.127090199203098,0.1091271609124526,0.1091271609124526,0.060719481319793746,0.07588575992162051
0.307,0.0866876202609232,0.07004618142195072,0.07004618142195072,0.06068236819311591,0.07610643915745721
0.3075,0.0357174615415473,0.020037164653615096,0.020037164653615096,0.06064528684364172,0.07632097002160056
0.308,0.013820969755146,-0.0025453688214985525,0.0025453688214985525,0.060608243181244636,0.07634038004347402
0.3085,0.0348871901215585,0.017859203618587362,0.017859203618587362,0.06057124302774115,0.07625708824771357
0.309,0.0800640863170376,0.06306665155101784,0.06306665155101784,0.06053429211663025,0.0762333038188273
0.3095,0.114013115619104,0.09695348387411287,0.09695348387411287,0.06049739609292899,0.07624274027633521
0.31,0.1106197754141832,0.09346390363673017,0.09346390363673017,0.060460560513103875,0.07619608670881808
0.3105,0.0711668625064762,0.05427530958037276,0.05427530958037276,0.06042379084509739,0.07619379770311283
0.311,0.02079803574646,0.004196673776828308,0.004196673776828308,0.0603870924684493,0.07633099856983011
0.3115,-0.0126498891137644,-0.029231728361445154,0.029231728361445154,0.06035047067451204,0.07644910267011912
0.312,-0.0171914186586616,-0.03412159553896893,0.03412159553896893,0.06031393066676001,0.07643230267163419
0.3125,0.0006492661223732,-0.017088259483537115,0.017088259483537115,0.06027747756119197,0.07645445459521134
0.313,0.0253185158032456,0.007284042422523149,0.007284042422523149,0.060241116386826166,0.0766692197005072
0.3135,0.0431384173244588,0.026538469850002067,0.026538469850002067,0.060204852086287404,0.07693627569602597
0.314,0.0463113176476714,0.031152677563691836,0.031152677563691836,0.06016868951648527,0.07706968286907587
0.3145,0.0296849928030766,0.012842695056531208,0.012842695056531208,0.06013263344938246,0.07709387904147434
0.315,-0.0086132135689587,-0.028485896113978663,0.028485896113978663,0.06009668857285216,0.07709354846349266
0.3155,-0.0557742375322341,-0.07461732211169886,0.07461732211169886,0.06006085949162314,0.07709232621590596
0.316,-0.0812853938145811,-0.09573568170282801,0.09573568170282801,0.06002515072831125,0.07709065904411719
0.3165,-0.063732461405498,-0.07768155064747825,0.07768155064747825,0.059989566724535655,0.07703521436082039
0.317,-0.0220416974927462,-0.040923771068137445,0.040923771068137445,0.05995411184211839,0.0769532382016831
0.3175,-0.0011330133669248,-0.0225725764780081,0.0225725764780081,0.059918790364365565,0.07699204946711499
0.318,-0.0192997560330962,-0.03661367315809869,0.03661367315809869,0.059883606497428646,0.07705009283851155
0.3185,-0.045939010841971,-0.05914195666759539,0.05914195666759539,0.05984856437174449,0.07682394952180728
0.319,-0.0412735923779657,-0.056919287941184026,0.056919287941184026,0.05981366804355232,0.07635379482157
0.3195,-0.0037954348403509,-0.024048238657110765,0.024048238657110765,0.059778921496486205,0.07601567200405644
0.32,0.0348632538175093,0.015275677777483097,0.015275677777483097,0.0597443286432412,0.07601913032825698
0.3205,0.0501413647455986,0.03459319824226733,0.03459319824226733,0.059709893327311615,0.07624324447029403
0.321,0.0424071445311027,0.027280792010106296,0.027280792010106296,0.05967561932479941,0.07645019058463998
0.3215,0.0222060848273003,0.0039110580675291995,0.0039110580675291995,0.059641510346290935,0.0764897019150625
0.322,-0.0023967170814129,-0.021622301940578296,0.021622301940578296,0.05960757003879993,0.0763409310467369
0.3225,-0.0231238534572441,-0.039927335339822706,0.039927335339822706,0.059573801987774636,0.07611280017470949
0.323,-0.0315196977529459,-0.04714923667855632,0.04714923667855632,0.05954020971916683,0.07599642758673272
0.3235,-0.0266107522155192,-0.04426447226616787,0.04426447226616787,0.059506796701560186,0.07599539749157141
0.324,-0.0147305600382635,-0.034063190895645475,0.034063190895645475,0.05947356634835557,0.07593907010406317
0.3245,0.0009064835077752,-0.01685392404031917,0.01685392404031917,0.059440522020010544,0.07585395606055663
0.325,0.0235305811113855,0.008117782324794882,0.008117782324794882,0.05940766702633034,0.07585298177438407
0.3255,0.0514320694305882,0.03511810623159573,0.03511810623159573,0.05937500462880755,0.07587523378042056
0.326,0.0698271485617077,0.05044410935362594,0.05044410935362594,0.05934253804300761,0.07586931235837927
0.3265,0.0637295561939369,0.04403960009208813,0.04403960009208813,0.05931027044099698,0.07586683694391815
0.327,0.0371255227870179,0.02069912241644931,0.02069912241644931,0.059278204953810934,0.07586928003454142
0.3275,0.0084743199040472,-0.006165108759844594,0.006165108759844594,0.05924634467395761,0.07593131204596737
0.328,-0.0134719822694474,-0.03079275246580382,0.03079275246580382,0.05921469265795508,0.07622385567976644
0.3285,-0.0360758955361273,-0.05663624472245355,0.05663624472245355,0.05918325192889788,0.07680977727048957
0.329,-0.0593056583180953,-0.07885242652045427,0.07885242652045427,0.059152025479049485,0.07735786077207811
0.3295,-0.0597701571032824,-0.07555135113812157,0.07555135113812157,0.059121016272457014,0.07745726755986386
0.33,-0.0147705721823242,-0.029369780327607755,0.029369780327607755,0.05909022724758448,0.07729915990665166
0.3305,0.0596870383305154,0.042234777229406134,0.042234777229406134,0.05905966131996072,0.07737628400637603
0.331,0.1112062146678668,0.09080924670271014,0.09080924670271014,0.059029321384838185,0.07763401233710462
0.3315,0.1010755037146937,0.08119136739203299,0.08119136739203299,0.058999210319858955,0.07772828482397438
0.332,0.046851363178314,0.029945088698072976,0.029945088698072976,0.05896933098772394,0.07765220903375518
0.3325,0.0062543506028351,-0.008665285069830837,0.008665285069830837,0.05893968623886165,0.0775667633580269
0.333,0.0182206041023038,0.002262172226292637,0.002262172226292637,0.05891027891409272,0.0775244152516684
0.3335,0.0654780665393033,0.046431020018725205,0.046431020018725205,0.05888111184728623,0.07751158756168447
0.334,0.0987930884232412,0.07791278771676247,0.07791278771676247,0.058852187868004106,0.07751623105347678
0.3345,0.0951248454678114,0.07616932145812022,0.07616932145812022,0.058823509804129634,0.07755726600632074
0.335,0.0826152454119183,0.06741471297699034,0.06741471297699034,0.05879508048447584,0.07762200760700536
0.3355,0.1006824428321028,0.08629393423819538,0.08629393423819538,0.05876690274136969,0.07764452477818266
0.336,0.1413273189559104,0.12356171236633198,0.12356171236633198,0.058738979413207965,0.07764621579017537
0.3365,0.1460678355624908,0.12510998712062416,0.12510998712062416,0.0587113133469807,0.07767828443939012
0.337,0.0693654793866775,0.049524029495244565,0.049524029495244565,0.05868390740075815,0.07769530383954182
0.3375,-0.0619244426097281,-0.07804897944070294,0.07804897944070294,0.05865676444613739,0.07768995206450988
0.338,-0.16251953682916,-0.17727339630810957,0.17727339630810957,0.05862988737064486,0.07763360781034576
0.3385,-0.1639615039965375,-0.18099081739280096,0.18099081739280096,0.05860327908009115,0.07743060423592793
0.339,-0.0740197735590443,-0.09334307773503855,0.09334307773503855,0.05857694250087472,0.07723416540477784
0.3395,0.0342527609596228,0.015465809355106108,0.015465809355106108,0.058550880582231145,0.07724301769312476
0.34,0.083914212953447,0.0669197522051691,0.0669197522051691,0.05852509629842507,0.07727155893350755
0.3405,0.0471339209783402,0.030498061449285116,0.030498061449285116,0.05849959265088194,0.07713574125611157
0.341,-0.0454498134494055,-0.06297412395635087,0.06297412395635087,0.05847437267025703,0.07697376739236216
0.3415,-0.1331283891397192,-0.15087255422427062,0.15087255422427062,0.058449439418439074,0.0769038076856607
0.342,-0.1655565859748954,-0.18253623931148102,0.18253623931148102,0.0584247959904861,0.07689101373534492
0.3425,-0.130418536642616,-0.14718068367325435,0.14718068367325435,0.058400445516490755,0.0768919096702284
0.343,-0.0539219785452108,-0.07157566304162064,0.07157566304162064,0.058376391163372836,0.07688115124652917
0.3435,0.024541616985507,0.006414679241024429,0.006414679241024429,0.0583526361365967,0.0768918204750111
0.344,0.0837114789922779,0.06640153753078086,0.06640153753078086,0.05832918368181168,0.0768979176080363
0.3445,0.1299469950820873,0.11336249503792217,0.11336249503792217,0.0583060370864138,0.07670808886230035
0.345,0.1769500250355374,0.1601101046558874,0.1601101046558874,0.05828319968102714,0.07632687714239532
0.3455,0.2197864056916947,0.20278431075821435,0.20278431075821435,0.058260674840903394,0.07604696932626309
0.346,0.2316763368392311,0.21491968247864593,0.21491968247864593,0.05823846598723804,0.07598143226787217
0.3465,0.1866341675409287,0.1692982468978247,0.1692982468978247,0.058216576588401965,0.07600378685774235
0.347,0.0887391154992766,0.0703572288040839,0.0703572288040839,0.05819501016108764,0.07602845116146799
0.3475,-0.0167338274733563,-0.03444638020207434,0.03444638020207434,0.058173770271369246,0.0760411490351147
0.348,-0.0674690033372868,-0.0829804620553362,0.0829804620553362,0.05815286053567679,0.07604670125213521
0.3485,-0.0347586069081839,-0.04972355557100341,0.04972355557100341,0.05813228462168442,0.07605678007294328
0.349,0.0425542728798315,0.025362894658635757,0.025362894658635757,0.05811204624911334,0.07609155896141531
0.3495,0.0831691210582984,0.0639928446268985,0.0639928446268985,0.05809214919044977,0.07614930501075327
0.35,0.0342470337952404,0.015908691409993597,0.015908691409993597,0.058072597271578486,0.07616733331024135
0.3505,-0.0781776323743392,-0.09423926674332397,0.09423926674332397,0.05805339437233246,0.07610206395183867
0.351,-0.1694502852750092,-0.18466572574725193,0.18466572574725193,0.05803454442695885,0.07598079163080655
0.3515,-0.1683252714761534,-0.18465000275075025,0.18465000275075025,0.05801605142450192,0.07586138991546051
0.352,-0.0750055254586291,-0.09265952171527457,0.09265952171527457,0.05799791940910318,0.07585277577427726
0.3525,0.0425715308125551,0.024626920584991066,0.024626920584991066,0.05798015248021946,0.07607651114980879
0.353,0.1047503398848145,0.08724576392265303,0.08724576392265303,0.05796275479275973,0.07644175285632339
0.3535,0.0788133291656712,0.061865226844684554,0.061865226844684554,0.05794573055714175,0.0766540198611327
0.354,-0.0035033333914299,-0.020005439386811187,0.020005439386811187,0.057929084039269926,0.07666140983931401
0.3545,-0.0768108905583485,-0.09334572274131825,0.09334572274131825,0.057912819560435626,0.07671184307063436
0.355,-0.0926670604717921,-0.10981020140861326,0.10981020140861326,0.05789694149714143,0.07685617682437887
0.3555,-0.049683730105102,-0.06723372050629929,0.06723372050629929,0.05788145428085077,0.07688527495507347
0.356,0.0164655765755965,-0.0010019179126428343,0.0010019179126428343,0.057866362397664246,0.07670493621522737
0.3565,0.0666398880772472,0.048985011549482156,0.048985011549482156,0.05785167038792425,0.07645992091400423
0.357,0.084043722662229,0.066236031360309,0.066236031360309,0.05783738284574931,0.07634882429904238
0.3575,0.076817478793799,0.059952168688149496,0.059952168688149496,0.05782350441849983,0.07638597067771624
0.358,0.0616206708083968,0.04551381010872626,0.04551381010872626,0.05781003980617659,0.07638948430624781
0.3585,0.04379267968857,0.02623555846863458,0.02623555846863458,0.05779699376075362,0.07620497333183977
0.359,0.0152508648653453,-0.0042663792879118305,0.0042663792879118305,0.057784371085446734,0.07584646921489584
0.3595,-0.0256201757609986,-0.04437158605858346,0.04437158605858346,0.05777217663391939,0.07545240958285937
0.36,-0.0596943068452969,-0.07596936361048456,0.07596936361048456,0.05776041530942694,0.07517582167013176
0.3605,-0.0630067571324752,-0.07902242142974562,0.07902242142974562,0.05774909206390078,0.07506402258814499
0.361,-0.034668427524189,-0.05314701735414431,0.05314701735414431,0.0577382118969735,0.0750597987027009
0.3615,0.0007159380137559,-0.019335652345745337,0.019335652345745337,0.057727779854946135,0.07508760053692408
0.362,0.0198725605763567,0.0011962490556717015,0.0011962490556717015,0.05771780102969872,0.07509190277325832
0.3625,0.0228372196340104,0.006098430109168551,0.006098430109168551,0.05770828055754521,0.07510567043496161
0.363,0.0252929457389225,0.008212766693635291,0.008212766693635291,0.057699223618033924,0.07513610131520329
0.3635,0.0364865541663006,0.017600060125435163,0.017600060125435163,0.05769063543269443,0.07510403436768524
0.364,0.0523854538788406,0.032724614044701526,0.032724614044701526,0.05768252126373179,0.0752868754504744
0.3645,0.0671198983877166,0.0481740913816101,0.0481740913816101,0.05767488641266861,0.0760404575905036
0.365,0.0818622110567866,0.06390604369353996,0.06390604369353996,0.05766773621893572,0.07690697513619259
0.3655,0.0994858952497651,0.08178816579990791,0.08178816579990791,0.05766107605841148,0.07729113134321391
0.366,0.1137983786963107,0.09521245908953907,0.09521245908953907,0.05765491134191024,0.07734812701392807
0.3665,0.1084657198851536,0.08860877561487818,0.08860877561487818,0.057649247513620105,0.07735408120740449
0.367,0.0711330512574563,0.05132248809142133,0.05132248809142133,0.05764409004949027,0.0774016634790739
0.3675,0.0094012591041482,-0.009003629464331128,0.009003629464331128,0.05763944445556819,0.07762283141586858
0.368,-0.0517269189006451,-0.06951016532206293,0.06951016532206293,0.05763531626628713,0.07791871779190956
0.3685,-0.0898531296321532,-0.10882949804311028,0.10882949804311028,0.05763171104270438,0.07806764697086249
0.369,-0.0994162843260382,-0.11971468196172493,0.11971468196172493,0.057628634370690705,0.07807036134845023
0.3695,-0.0871944030913329,-0.10708061807961632,0.10708061807961632,0.05762609185907148,0.07803895057189233
0.37,-0.0606011182580907,-0.07900835298440945,0.07900835298440945,0.05762408913771992,0.07804038251193396
0.3705,-0.0248255787217693,-0.04302362272588518,0.04302362272588518,0.05762263185560315,0.07806472659683565
0.371,0.0118038627672243,-0.00790840762240308,0.00790840762240308,0.057621725678781786,0.07803433625903768
0.3715,0.0381313436694749,0.017562743415331115,0.017562743415331115,0.05762137628836405,0.07784193500436963
0.372,0.0500600663328394,0.030692441788877645,0.030692441788877645,0.05762158937841522,0.07747674433286013
0.3725,0.055662426351847,0.03755877572428288,0.03755877572428288,0.05762237065382339,0.07714402090011989
0.373,0.0665837992937512,0.0476651166769389,0.0476651166769389,0.05762372582812251,0.07704651473407247
0.3735,0.0873902849768586,0.06677024170365617,0.06677024170365617,0.05762566062127317,0.07711678833088983
0.374,0.1151878172048991,0.09474479871672455,0.09474479871672455,0.057628180757401955,0.07718575151376929
0.3745,0.1443063073615633,0.12594581137344835,0.12594581137344835,0.05763129196249985,0.07728424508222503
0.375,0.1654494366214856,0.14785144481525192,0.14785144481525192,0.05763499996208019,0.07758636438163177
0.3755,0.16304546451626,0.1432401643163726,0.1432401643163726,0.05763931047879685,0.0780813638346153
0.376,0.1245374320086254,0.10277629110592768,0.10277629110592768,0.057644229230023325,0.07848963505435091
0.3765,0.0589059770167103,0.03889815612918595,0.03889815612918595,0.05764976192539374,0.07860834089649753
0.377,-0.0020088067927848,-0.01892207668836275,0.01892207668836275,0.05765591426430695,0.07855591553634178
0.3775,-0.0321537606116408,-0.049511943479812345,0.049511943479812345,0.057662691933395085,0.0785372730571283
0.378,-0.0384252636868081,-0.059137167983209074,0.059137167983209074,0.05767010060395828,0.07855845454315978
0.3785,-0.0480640465289353,-0.06984897986499997,0.06984897986499997,0.05767814592936692,0.07850036469889551
0.379,-0.0702131301664354,-0.08937885611732609,0.08937885611732609,0.05768683354243314,0.07830978845856325
0.3795,-0.0827939583465324,-0.09971357793612762,0.09971357793612762,0.05769616905275308,0.07802430173085123
0.38,-0.0615240397389963,-0.07944318384118733,0.07944318384118733,0.057706158044021245,0.07770603443319589
0.3805,-0.0131585747263218,-0.03332939319010155,0.03332939319010155,0.05771680607131883,0.07742005314298533
0.381,0.0264443557247157,0.005994761343433536,0.005994761343433536,0.057728118658377355,0.07723485002084098
0.3815,0.0251897602834953,0.006473795999189361,0.006473795999189361,0.05774010129481961,0.07717076080344007
0.382,-0.0166364707774257,-0.03430532049068524,0.03430532049068524,0.05775275943337945,0.07716738945057305
0.3825,-0.0669317842449375,-0.08564463644908761,0.08564463644908761,0.05776609848710234,0.07716745963037415
0.383,-0.0857626356487159,-0.10572141679205488,0.10572141679205488,0.05778012382652805,0.07719695608694414
0.3835,-0.0519752373923899,-0.07110344763033807,0.07110344763033807,0.057794840776857155,0.077310275617369
0.384,0.0214364196422256,0.004237729608099927,0.004237729608099927,0.05781025461510265,0.0774912468267652
0.3845,0.0899930163930923,0.07273127757581296,0.07273127757581296,0.05782637056722825,0.07766776584033619
0.385,0.1035745399935939,0.0837755301060786,0.0837755301060786,0.05784319380527492,0.07779903908621895
0.3855,0.0472172619098032,0.02597300969097681,0.02597300969097681,0.057860729444476976,0.07786532723021275
0.386,-0.035682587785691,-0.05453496297314952,0.05453496297314952,0.05787898254036955,0.0778608673315473
0.3865,-0.0710758979156617,-0.08642272170882825,0.08642272170882825,0.05789795808588873,0.07784500180643207
0.387,-0.0205524983036731,-0.03628257078974427,0.03628257078974427,0.05791766100846607,0.07784527087785803
0.3875,0.0775898008412776,0.05768130805903335,0.05768130805903335,0.05793809616711887,0.07781037394954274
0.388,0.1427467956329204,0.12052929626060628,0.12052929626060628,0.057959268349537796,0.07775358560694762
0.3885,0.1313772118738051,0.111927310987265,0.111927310987265,0.057981182269173356,0.07773617777497674
0.389,0.0745983004691456,0.059185627324120645,0.059185627324120645,0.05800384256232274,0.07774382910056629
0.3895,0.0330649234024849,0.017978034383764906,0.017978034383764906,0.05802725378521872,0.07771462915031117
0.39,0.0261154762532089,0.007935608641202827,0.007935608641202827,0.05805142041112225,0.07760077190070452
0.3905,0.018486140604849,-0.0025217849531901926,0.0025217849531901926,0.05807634682742058,0.07739202964784594
0.391,-0.0260603806360619,-0.04703477566685599,0.04703477566685599,0.05810203733273273,0.07717324587341186
0.3915,-0.0912139145506715,-0.10909726788368922,0.10909726788368922,0.05812849613402399,0.07711915028630384
0.392,-0.1175899510290527,-0.13210117849030384,0.13210117849030384,0.05815572734373105,0.07726684038338452
0.3925,-0.0681003487134341,-0.0832898487087967,0.0832898487087967,0.058183734976899396,0.07737033349241079
0.393,0.0228494321841767,0.002802927034171364,0.002802927034171364,0.05821252294833435,0.07727004111137671
0.3935,0.0783677887279942,0.05543355840851812,0.05543355840851812,0.0582420950697674,0.07726949463698292
0.394,0.060391032385966,0.041036305389940755,0.041036305389940755,0.058272455047039505,0.07767535420653762
0.3945,0.0097563409195097,-0.0041478978076008,0.0041478978076008,0.05830360647730314,0.07815678318152533
0.395,-0.0036744387609161,-0.01809912898749094,0.01809912898749094,0.0583355528462448,0.07827915068289129
0.3955,0.0397906558655596,0.019634110409266013,0.019634110409266013,0.058368297525329585,0.07830775925515684
0.396,0.0960875562597972,0.07348443267899958,0.07348443267899958,0.05840184376906948,0.07862079863122641
0.3965,0.1173996712606066,0.09874481291514085,0.09874481291514085,0.05843619471231674,0.07891912843956354
0.397,0.103201252940567,0.08824385571819629,0.08824385571819629,0.058471353367583724,0.0789255997211962
0.3975,0.0849595672233143,0.06821035783374063,0.06821035783374063,0.0585073226223904,0.07906987641464111
0.398,0.0792299319286887,0.05912395523309438,0.05912395523309438,0.0585441052366408,0.07963275647114834
0.3985,0.0718558227509599,0.05219527005867743,0.05219527005867743,0.05858170384002981,0.08009310549761006
0.399,0.0411834530742989,0.02376258889804584,0.02376258889804584,0.05862012092948156,0.08012736142019866
0.3995,-0.0160719742534552,-0.034002172055854304,0.034002172055854304,0.05865935886662103,0.08021692294232693
0.4,-0.0785889343378796,-0.09838006341379864,0.09838006341379864,0.05869941987528013,0.08056522911946436
0.4005,-0.111057537143502,-0.130018214157856,0.130018214157856,0.058740306039039854,0.08067683605081441
0.401,-0.0876973221513563,-0.10446767123413435,0.10446767123413435,0.05878201929880973,0.08047470505010715
0.4015,-0.0187771168985864,-0.03628620315417982,0.03628620315417982,0.05882456145044606,0.08038649790989699
0.402,0.047834266630798,0.027434405125129353,0.027434405125129353,0.05886793414241037,0.08037427485620054
0.4025,0.0644704036384215,0.04367633764733812,0.04367633764733812,0.05891213887346973,0.08018665999535447
0.403,0.0273940247155413,0.009208835394856096,0.009208835394856096,0.05895717699044045,0.07999704542649978
0.4035,-0.0222606652300923,-0.03905162483402086,0.03905162483402086,0.059003049685977055,0.07997027615209415
0.404,-0.0407882190266612,-0.059212392234558764,0.059212392234558764,0.05904975799640793,0.07997180467764152
0.4045,-0.0192797927044121,-0.03958997089858902,0.03958997089858902,0.05909730279961934,0.07992084887949952
0.405,0.0181290819346109,-0.0019994887695441166,0.0019994887695441166,0.05914568481298917,0.07986205818628887
0.4055,0.0418251185052758,0.023038130079652525,0.023038130079652525,0.05919490459137175,0.07981083816907754
0.406,0.0388614877371337,0.020674252681231884,0.020674252681231884,0.059244962525135,0.07978088232298872
0.4065,0.0155315979715329,-0.0034339892872248864,0.0034339892872248864,0.05929585883825113,0.07987780364480192
0.407,-0.0130310637189718,-0.03304286056072351,0.03304286056072351,0.059347593586441844,0.08026831285263085
0.4075,-0.0320602426044541,-0.051811892006702345,0.051811892006702345,0.05940016665537904,0.08092890604627015
0.408,-0.0297190735880352,-0.04845149720795902,0.04845149720795902,0.059453577758941556,0.08147326303067944
0.4085,-0.0001754238572261,-0.01924411239475169,0.01924411239475169,0.05950782643752882,0.08156280887672542
0.409,0.0502515351536838,0.02988695485421651,0.02988695485421651,0.05956291205643163,0.08139328108052284
0.4095,0.1029745044976078,0.08298579557552603,0.08298579557552603,0.05961883380426074,0.08134277186868002
0.41,0.1353310983228005,0.11703822862683924,0.11703822862683924,0.05967559069143329,0.08142365987514757
0.4105,0.128712359264799,0.11014180273448215,0.11014180273448215,0.05973318154871763,0.0814672729441709
0.411,0.0767791041478082,0.05578431211873791,0.05578431211873791,0.059791605025836525,0.08146453000465254
0.4115,-0.0024397398221642,-0.02422806371526129,0.02422806371526129,0.0598508595901293,0.08149233420868744
0.412,-0.0659710938769041,-0.0853013035255761,0.0853013035255761,0.059910943525273076,0.08154512051835755
0.4125,-0.0745878780073457,-0.09146078990376577,0.09146078990376577,0.0599718549300637,0.08158303179957217
0.413,-0.0311935398326206,-0.049282532944748256,0.049282532944748256,0.06003359171725686,0.08159029957510723
0.4135,0.0167527549291299,-0.005234380566325194,0.005234380566325194,0.06009615161247,0.08155628275035416
0.414,0.0243378571775415,0.0008073066550768303,0.0008073066550768303,0.060159532153145436,0.08151888260437577
0.4145,-0.000251004746736,-0.020285527036923563,0.020285527036923563,0.06022373068757545,0.08151462886083734
0.415,-0.0031199518050741,-0.018849830751698417,0.018849830751698417,0.06028874437398968,0.0815228536527696
0.4155,0.048909577723206,0.03221447999697716,0.03221447999697716,0.06035457017970524,0.0815321608885353
0.416,0.1183566639189971,0.09640713473143894,0.09640713473143894,0.06042120488033994,0.08154971973430959
0.4165,0.131023591239789,0.10661686237031087,0.10661686237031087,0.060488645059088485,0.08157334302766509
0.417,0.0616217270950058,0.04067066663658642,0.04067066663658642,0.060556887106061746,0.08158766095107314
0.4175,-0.0299991816943332,-0.04646506747787328,0.04646506747787328,0.06062592721768901,0.08158831822941055
0.418,-0.0577714936223441,-0.07430487992935754,0.07430487992935754,0.06069576139618315,0.08158758866226079
0.4185,0.0021586870894683,-0.018169982770368548,0.018169982770368548,0.060766385449068754,0.0815502875075722
0.419,0.0900484022593432,0.06722009760735542,0.06722009760735542,0.06083779498877311,0.08145837692490693
0.4195,0.1264203134976324,0.1048550195807246,0.1048550195807246,0.06090998543228015,0.08140511171319288
0.42,0.0892787246395769,0.07048047624423125,0.07048047624423125,0.060982952000847246,0.08144624361352315
0.4205,0.0273714954914346,0.009631277483190516,0.009631277483190516,0.061056689719784896,0.08151232612966969
0.421,0.0048529114363173,-0.014037863162153857,0.014037863162153857,0.06113119341829912,0.08150240148864704
0.4215,0.038207940222171,0.017777978722214566,0.017777978722214566,0.061206457729396695,0.08142219621198585
0.422,0.0840655604840901,0.06335784442797314,0.06335784442797314,0.06128247708985309,0.08149923007899602
0.4225,0.0829327352387424,0.06304712931905382,0.06304712931905382,0.06135924574024295,0.08177470929793544
0.423,0.0145976100426203,-0.00480842238562687,0.00480842238562687,0.061436757725032966,0.08187667246456568
0.4235,-0.0834074685005876,-0.10309670462264862,0.10309670462264862,0.0615150068927367,0.08180576457496001
0.424,-0.1457838695699023,-0.16527477067734575,0.16527477067734575,0.06159398689613101,0.08190795577800822
0.4245,-0.1305575424088127,-0.14909628912975206,0.14909628912975206,0.06167369119253355,0.08202554979198275
0.425,-0.0524327536849978,-0.07103388162651765,0.07103388162651765,0.061754113044140906,0.08201747694386616
0.4255,0.0277314506150976,0.00739833072970018,0.00739833072970018,0.06183524551842719,0.08217120088469787
0.426,0.0530844267941676,0.03158745033274888,0.03158745033274888,0.061917081488602706,0.08240466763460717
0.4265,0.0194409994674256,-0.000628657033861453,0.000628657033861453,0.06199961363413297,0.08244412157305489
0.427,-0.0250547517238144,-0.042481804768443085,0.042481804768443085,0.062082834441318006,0.08249678134216604
0.4275,-0.0316145295166723,-0.048512697191542865,0.048512697191542865,0.062166736203932,0.08277444081956091
0.428,-0.0013933409003397,-0.02086239618115736,0.02086239618115736,0.06225131102392331,0.08308426819543394
0.4285,0.0196222390648334,-0.002471534704840253,0.002471534704840253,0.062336550812174464,0.0832328326713418
0.429,-0.002888528177999,-0.02422979549812236,0.02422979549812236,0.062422447289321996,0.0832523048193455
0.4295,-0.047058172321564,-0.06505691080920861,0.06505691080920861,0.06250899198663552,0.08323732071688945
0.43,-0.0550299960600426,-0.0712132239963912,0.0712132239963912,0.06259617624695549,0.08324613023990851
0.4305,0.003146410604317,-0.014892004077236051,0.014892004077236051,0.0626839912256889,0.0832855996709471
0.431,0.0941220671568144,0.07293893712159201,0.07293893712159201,0.06277242789186224,0.08329464240410499
0.4315,0.1538434077880235,0.1319623305876112,0.1319623305876112,0.06286147702923055,0.08324867432210159
0.432,0.1505567772599875,0.1311287750039606,0.1311287750039606,0.0629511292374419,0.08324209853252904
0.4325,0.1093241671958813,0.09261375967804295,0.09261375967804295,0.06304137493325619,0.08331085575932413
0.433,0.0759147136746879,0.058930548023579374,0.058930548023579374,0.06313220435181748,0.08335580937816342
0.4335,0.0647356147353336,0.044705063454316116,0.044705063454316116,0.06322360754797904,0.08335580835966717
0.434,0.04911452333636,0.02730227511138564,0.02730227511138564,0.0633155743976806,0.08339271675827685
0.4345,0.0017768674422939,-0.018013787867265346,0.018013787867265346,0.06340809459937721,0.08345327650385544
0.435,-0.0649416236901853,-0.08211499001300572,0.08211499001300572,0.0635011576755193,0.0834408886597991
0.4355,-0.1064313122569243,-0.12440917878026492,0.12440917878026492,0.06359475297408329,0.08336039022841937
0.436,-0.0873254476834072,-0.10770179236033603,0.10770179236033603,0.0636888696701524,0.08333087766139918
0.4365,-0.0095022446972804,-0.0297352383306479,0.0297352383306479,0.06378349676754663,0.08338087061992762
0.437,0.0916704285657519,0.07341021051080143,0.07341021051080143,0.06387862310050164,0.08339626204141214
0.4375,0.1678998522351366,0.1497462943009409,0.1497462943009409,0.06397423733539594,0.08339027839763133
0.438,0.1832425778694526,0.16310674205056788,0.16310674205056788,0.06407032797252572,0.08350392159185496
0.4385,0.1370635092369596,0.11608588479043591,0.11608588479043591,0.0641668833479273,0.08366966618884439
0.439,0.0674531564781383,0.04826098966724539,0.04826098966724539,0.06426389163524657,0.08372143374711988
0.4395,0.0230859802325354,0.005881046553886417,0.005881046553886417,0.0643613408476557,0.08371029272235925
0.44,0.0221570037248672,0.004099521195777648,0.004099521195777648,0.06445921883981708,0.08375941599627927
0.4405,0.0379092443312239,0.016897880942011584,0.016897880942011584,0.06455751330989479,0.08383422759678995
0.441,0.0294004795622694,0.007383609759651716,0.007383609759651716,0.06465621180161386,0.08383147329513323
0.4415,-0.0123412088036269,-0.031787191277680316,0.031787191277680316,0.06475530170636747,0.08376145679740256
0.442,-0.0547863194496028,-0.07174487284144121,0.07174487284144121,0.064854770265372,0.08372462074173537
0.4425,-0.0633238282468865,-0.0814631765166941,0.0814631765166941,0.06495460457186991,0.08374999968955252
0.443,-0.0420648712101861,-0.06310059841864266,0.06310059841864266,0.06505479157337994,0.0837897342335408
0.4435,-0.0272840808141089,-0.048850507446779864,0.048850507446779864,0.0651553180739941,0.08378997989222242
0.444,-0.0451006493692997,-0.0648437417033572,0.0648437417033572,0.06525617073672121,0.08375082030634123
0.4445,-0.0849446777653918,-0.10357593990072678,0.10357593990072678,0.06535733608587624,0.08377018827729181
0.445,-0.1140618157516096,-0.133201217502466,0.133201217502466,0.06545880050951514,0.08387280762546383
0.4455,-0.1104908410340052,-0.13022729964770446,0.13022729964770446,0.0655605502619146,0.08394848347993845
0.446,-0.0799561952331044,-0.10003277616741646,0.10003277616741646,0.06566257146609625,0.08396153012640616
0.4465,-0.045744549480971,-0.06657551460457278,0.06657551460457278,0.06576485011639514,0.0839638893395396
0.447,-0.0248781358198851,-0.04575966884503086,0.04575966884503086,0.06586737208107223,0.08398292914513712
0.4475,-0.0125509619536074,-0.03176171063849989,0.03176171063849989,0.06597012310497084,0.08401080547847602
0.448,0.0089364997171852,-0.009302209594154232,0.009302209594154232,0.06607308881221752,0.08401242044356864
0.4485,0.0444521927362181,0.02426617644891134,0.02426617644891134,0.06617625470896693,0.0839865833170165
0.449,0.0753852754806434,0.053170441919474454,0.053170441919474454,0.06627960618619144,0.0839699424182908
0.4495,0.0802287752237655,0.059423398937284155,0.059423398937284155,0.06638312852251493,0.08396999412770935
0.45,0.0594667330330944,0.04120104553328224,0.04120104553328224,0.066486806887091,0.0839810715268313
0.4505,0.0333853809993757,0.01445233089293547,0.01445233089293547,0.06659062634252491,0.08400380816714924
0.451,0.022868195329364,0.0011952747369228314,0.0011952747369228314,0.06669457184783947,0.08402964351036937
0.4515,0.040869785354423,0.0188646607147515,0.0188646607147515,0.06679862826148376,0.08402982891755256
0.452,0.0931092609929574,0.07357470655016163,0.07357470655016163,0.06690278034438461,0.08400779097024268
0.4525,0.1697665671760068,0.15161710189285937,0.15161710189285937,0.06700701276303986,0.08402097483682053
0.453,0.234880602064379,0.2150824959421375,0.2150824959421375,0.06711131009265264,0.08405521218320855
0.4535,0.2396037528267452,0.21762859080687288,0.21762859080687288,0.06721565682030559,0.08405242107249329
0.454,0.1611477827415797,0.1393945177044613,0.1393945177044613,0.06732003734817428,0.08401441624476505
0.4545,0.0311476097196233,0.01141422155223952,0.01141422155223952,0.06742443599677933,0.0839408168451037
0.455,-0.0814153438413881,-0.10005960617356836,0.10005960617356836,0.06752883700827671,0.08390346145521824
0.4555,-0.122351887190548,-0.14180362105024966,0.14180362105024966,0.06763322454978651,0.08396593667314053
0.456,-0.0914226376676082,-0.11213749696384916,0.11213749696384916,0.06773758271676056,0.08397622897271191
0.4565,-0.0336174868811035,-0.05479329066766593,0.05479329066766593,0.06784189553638918,0.08387802186395536
0.457,0.0049382722938551,-0.01595672028935846,0.01595672028935846,0.06794614697104798,0.08380363125066786
0.4575,0.0138504479966886,-0.006239193762758697,0.006239193762758697,0.06805032092178506,0.08379888466287906
0.458,0.0173593941278104,-0.001705579353230631,0.001705579353230631,0.0681544012318497,0.0838493111138053
0.4585,0.0403812115453531,0.021474627841749784,0.021474627841749784,0.06825837169026305,0.08386315529992704
0.459,0.0765583302538822,0.05642707398230675,0.05642707398230675,0.0683622160354318,0.08391440576107478
0.4595,0.0922520529358559,0.07087624673230461,0.07087624673230461,0.06846591795880487,0.08430034931924255
0.46,0.063580869002551,0.04255576495539008,0.04255576495539008,0.06856946110857386,0.08477752108188054
0.4605,0.0066773684991628,-0.012706013523120362,0.012706013523120362,0.068672829093417,0.08486914413375785
0.461,-0.0322751796150227,-0.050669807639144804,0.050669807639144804,0.0687760054862869,0.08480654812226221
0.4615,-0.0187032819305375,-0.03798234624606965,0.03798234624606965,0.06887897382824196,0.08491268324197614
0.462,0.0376167475804101,0.016916241553325384,0.016916241553325384,0.06898171763232136,0.08503417270632777
0.4625,0.09067335800949,0.07009499032827407,0.07009499032827407,0.06908422038746334,0.08507477007421456
0.463,0.0976994414638372,0.07822387275791053,0.07822387275791053,0.06918646556246638,0.08502017261507679
0.4635,0.0510740210349681,0.03172576878049857,0.03172576878049857,0.06928843660999294,0.08482323071423209
0.464,-0.0210047290783006,-0.040772109974702625,0.040772109974702625,0.06939011697061499,0.08465007928001156
0.4645,-0.0766227681124508,-0.09594007832796742,0.09594007832796742,0.06949149007690085,0.08461262610912039
0.465,-0.0870554448325502,-0.10606251831179217,0.10606251831179217,0.06959253935754257,0.08461898027935949
0.4655,-0.0539410923587257,-0.07390275890228054,0.07390275890228054,0.0696932482415232,0.08473961733629125
0.466,-0.0041244820494022,-0.024529681400077278,0.024529681400077278,0.0697936001623231,0.08502732947335599
0.4665,0.0347386545438538,0.015596095758918703,0.015596095758918703,0.06989357856216454,0.08515981192386202
0.467,0.0533285530676859,0.0348550653390401,0.0348550653390401,0.06999316689629398,0.08490313954585252
0.4675,0.0584151441821641,0.03862346516639446,0.03862346516639446,0.07009234863730125,0.08458018143380333
0.468,0.0609836504983181,0.04043469347277412,0.04043469347277412,0.07019110727947465,0.0845963179039175
0.4685,0.0689902371009573,0.049907856121497854,0.049907856121497854,0.07028942634319123,0.08484183424154265
0.469,0.0818386800078811,0.06385851511265848,0.06385851511265848,0.07038728937934102,0.08497271574462151
0.4695,0.0862530287772118,0.06686249851451033,0.06686249851451033,0.07048467997378406,0.08492590952351854
0.47,0.0655729768623841,0.04451252013792005,0.04451252013792005,0.07058158175183885,0.08479719552348812
0.4705,0.0206748966567635,0.0004301161475386457,0.0004301161475386457,0.07067797838280081,0.08453461736407437
0.471,-0.023259956366795,-0.04152432698649773,0.04152432698649773,0.0707738535844895,0.08406027939802999
0.4715,-0.0390084382442529,-0.057067369521431835,0.057067369521431835,0.07086919112782278,0.08351059917243955
0.472,-0.0255754120524942,-0.04525055622742007,0.04525055622742007,0.07096397484141652,0.08317428857545667
0.4725,-0.0089629516468399,-0.029797327971150846,0.029797327971150846,0.07105818861620791,0.08316749468617385
0.473,-0.0142015941377251,-0.03449461825764991,0.03449461825764991,0.07115181641010072,0.08325711115022942
0.4735,-0.0390333135211031,-0.05803388611056106,0.05803388611056106,0.07124484225263027,0.08323693536947496
0.474,-0.0561712968654148,-0.07487862021298067,0.07487862021298067,0.07133725024964618,0.08320938703589421
0.4745,-0.0416851056811322,-0.061384184394753585,0.061384184394753585,0.07142902458801069,0.08322207106611701
0.475,-0.0011497494468327,-0.021415150390343904,0.021415150390343904,0.07152014954031005,0.08321731875017158
0.4755,0.032052377089904,0.012520665809557123,0.012520665809557123,0.07161060946957688,0.08324842323337255
0.476,0.0234825951495609,0.004196208061451337,0.004196208061451337,0.07170038883402081,0.08316791581983504
0.4765,-0.0340096324576098,-0.054639482062678456,0.054639482062678456,0.0717894721917652,0.0827859152498511
0.477,-0.1096172345436027,-0.13081345653744375,0.13081345653744375,0.0718778442055868,0.08239040547562868
0.4775,-0.1494822360096113,-0.16868859303987654,0.16868859303987654,0.07196548964765602,0.08228647816486784
0.478,-0.1142998194597075,-0.1319335618306118,0.1319335618306118,0.07205239340427459,0.08232104256077505
0.4785,-0.0157103216426417,-0.035470741343380845,0.035470741343380845,0.07213854048060767,0.08229338367114447
0.479,0.0857945797634973,0.06296469132748599,0.06296469132748599,0.07222391600540767,0.0822550512895653
0.4795,0.128854109067215,0.10710088103355844,0.10710088103355844,0.07230850523572714,0.08227324708559247
0.48,0.0999777274193859,0.08203402429803733,0.08203402429803733,0.07239229356161796,0.08222177639445619
0.4805,0.0334101399107256,0.01569698166759509,0.01569698166759509,0.07247526651081473,0.08207757915864479
0.481,-0.0286250167005646,-0.050185851481165715,0.050185851481165715,0.07255740975339951,0.08208616859091598
0.4815,-0.0628263962511409,-0.0858467831115699,0.0858467831115699,0.07263870910644567,0.08226354672397407
0.482,-0.0598006984831823,-0.07970691984598098,0.07970691984598098,0.07271915053863835,0.08234160247593693
0.4825,-0.018814041727932,-0.03659885506511366,0.03659885506511366,0.07279872017486906,0.08229280297774776
0.483,0.0422028310817482,0.022382958515476323,0.022382958515476323,0.07287740430080165,0.08227229354953029
0.4835,0.0894204945171554,0.06723994620832424,0.06723994620832424,0.07295518936740727,0.08228354722072473
0.484,0.101088015567714,0.07940410155201277,0.07940410155201277,0.07303206199546554,0.08227922411290053
0.4845,0.08762363594384,0.06762789900425795,0.06762789900425795,0.07310800898002907,0.0822898526180894
0.485,0.0764637581043199,0.05734522667500671,0.05734522667500671,0.07318301729484886,0.082297136012698
0.4855,0.0791437063948401,0.060035187522307826,0.060035187522307826,0.07325707409675723,0.08223603233672928
0.486,0.0774922581739739,0.05727716685941288,0.05727716685941288,0.07333016673000585,0.08216707401004454
0.4865,0.0455727923298028,0.023320929411044036,0.023320929411044036,0.07340228273055553,0.08218298978546089
0.487,-0.0111265887255349,-0.033800953402158065,0.033800953402158065,0.07347340983031511,0.08222788384635742
0.4875,-0.041949645748837,-0.06166719643648865,0.06166719643648865,0.07354353596132614,0.08223938598318777
0.488,0.0090353137747492,-0.007586884993034799,0.007586884993034799,0.07361264925989029,0.0822392572997072
0.4885,0.1379560613621139,0.11982709840563274,0.11982709840563274,0.07368073807063635,0.0822410490269655
0.489,0.2630946588855684,0.24025002454117983,0.24025002454117983,0.07374779095052335,0.08225683919096034
0.4895,0.2905607976743762,0.2662963887922776,0.2662963887922776,0.07381379667277624,0.08225724500781197
0.49,0.2055124581152472,0.18520305554756544,0.18520305554756544,0.07387874423075086,0.08223759274242956
0.4905,0.089330078664865,0.07296111842179566,0.07296111842179566,0.07394262284172497,0.08230658678053376
0.491,0.0403466300853526,0.023083801219079644,0.023083801219079644,0.07400542195061242,0.08238300193494431
0.4915,0.0828739800337123,0.06169478538066983,0.06169478538066983,0.07406713123359815,0.08229469346315398
0.492,0.1557188662840031,0.1325299691449194,0.1325299691449194,0.0741277406016917,0.0822556090339706
0.4925,0.1800418381181122,0.15879172072527198,0.15879172072527198,0.07418724020419765,0.08241824940908969
0.493,0.1302397126246174,0.11234322924765602,0.11234322924765602,0.07424562043210084,0.08249160204103734
0.4935,0.0425075606412091,0.025255792467281046,0.025255792467281046,0.07430287192136448,0.0824557551208509
0.494,-0.0326849946893726,-0.05258076989844426,0.05258076989844426,0.07435898555613951,0.08255167746564628
0.4945,-0.0743049202799597,-0.09613138784689505,0.09613138784689505,0.07441395247188357,0.0825963177393823
0.495,-0.0901658943096035,-0.11056783170701975,0.11056783170701975,0.07446776405838802,0.08246815481269926
0.4955,-0.0917169563285636,-0.1100276466027332,0.1100276466027332,0.07452041196271157,0.08249714901262932
0.496,-0.0827951092318393,-0.10148658824069166,0.10148658824069166,0.07457188809201885,0.08275947704335068
0.4965,-0.0663596379992795,-0.0865348062030119,0.0865348062030119,0.0746221846163226,0.0829725103413375
0.497,-0.0498448678815164,-0.06996216152865949,0.06996216152865949,0.07467129397112793,0.0830334159455216
0.4975,-0.0431360111787066,-0.062186666381414804,0.062186666381414804,0.07471920885997754,0.0830294144203647
0.498,-0.0551697946500068,-0.07409983997420344,0.07409983997420344,0.0747659222568965,0.08301363000248195
0.4985,-0.0896133238743486,-0.10934864344358687,0.10934864344358687,0.07481142740873555,0.08299445603972753
0.499,-0.1386546305336856,-0.15868595482166079,0.15868595482166079,0.07485571783741153,0.0829884702129875
0.4995,-0.1812380226348516,-0.20064319041471615,0.20064319041471615,0.07489878734204415,0.08301641126361918
0.5,-0.1923756643254541,-0.21125812598868657,0.21125812598868657,0.0749406300009877,0.08302862958639018
0.5005000000000001,-0.1595780216737811,-0.178801920491985,0.178801920491985,0.07498124017375699,0.08290067967989091
0.501,-0.092841053213981,-0.11265879860428213,0.11265879860428213,0.07502061250284674,0.08266636161387138
0.5015000000000001,-0.0184815831207398,-0.038275284730367294,0.038275284730367294,0.07505874191544427,0.08257106535557958
0.502,0.0378429512074631,0.018402869787002965,0.018402869787002965,0.0750956236250356,0.08268704339678026
0.5025000000000001,0.0644427658553117,0.044920388461986316,0.044920388461986316,0.07513125313290514,0.08283764102556808
0.503,0.0647584887689096,0.04493133110294682,0.04493133110294682,0.07516562622952978,0.08292440409338578
0.5035000000000001,0.0490894076418876,0.02948174596202035,0.02948174596202035,0.07519873899586782,0.08297275358959469
0.504,0.0248493030051092,0.005684470797251866,0.005684470797251866,0.07523058780454302,0.08299019562510901
0.5045000000000001,-0.0071700205722518,-0.026741977456570795,0.026741977456570795,0.07526116932092425,0.08293652265629188
0.505,-0.0467487895463071,-0.06736617817746388,0.06736617817746388,0.07529048050410066,0.08282126833222299
0.5055000000000001,-0.0828122004867166,-0.10354780856604207,0.10354780856604207,0.07531851860775253,0.08275110111584921
0.506,-0.0907925759993741,-0.110426356809238,0.110426356809238,0.07534528118091743,0.08275930043865365
0.5065000000000001,-0.0495087038890375,-0.06845141069712589,0.06845141069712589,0.07537076606865153,0.08277008214093093
0.507,0.0347996488289882,0.015191596891524925,0.015191596891524925,0.07539497141258553,0.08276966109346474
0.5075000000000001,0.1252063857521659,0.10444197800684649,0.10444197800684649,0.07541789565137492,0.08277502566836005
0.508,0.1804745607916072,0.15909068088770228,0.15909068088770228,0.07543953752104442,0.08274864141831804
0.5085000000000001,0.1869363431941787,0.16587668820966128,0.16587668820966128,0.07545989605522588,0.08271857319276513
0.509,0.1651079340421183,0.14539297308141055,0.14539297308141055,0.07547897058528971,0.08278265554421906
0.5095000000000001,0.1453777359746221,0.12678671013196696,0.12678671013196696,0.07549676074036944,0.08289354292222748
0.51,0.1363200970972677,0.11643902484849486,0.11643902484849486,0.07551326644727945,0.08290871443363504
0.5105000000000001,0.1176614337678616,0.09493583290578758,0.09493583290578758,0.07552848793032603,0.08288127482205764
0.511,0.0686971496477898,0.045879446192668705,0.045879446192668705,0.07554242571101241,0.08293048839026587
0.5115000000000001,0.0022499177921465,-0.01720711831838169,0.01720711831838169,0.0755550806076381,0.08296621954089087
0.512,-0.0405891083936343,-0.05848509762931673,0.05848509762931673,0.07556645373479369,0.08295091988376621
0.5125,-0.0330188897282135,-0.05375287461574822,0.05375287461574822,0.0755765465027517,0.0829851333951394
0.513,0.01145728209361,-0.011925550255275537,0.011925550255275537,0.07558536061675435,0.0829651862410231
0.5135,0.059232349018239,0.037234534972751115,0.037234534972751115,0.07559289807619875,0.08279714883055325
0.514,0.0889691231183094,0.06957163685241732,0.06957163685241732,0.07559916117372027,0.08265226892400772
0.5145,0.0961340545133949,0.07666348977710379,0.07666348977710379,0.07560415249417438,0.08261880023417162
0.515,0.0782188110328414,0.05697537164031556,0.05697537164031556,0.07560787491351721,0.08261906393469616
0.5155,0.0318014558827226,0.009951872545592128,0.009951872545592128,0.07561033159758518,0.08261915635987326
0.516,-0.0335509852690388,-0.05480762966226112,0.05480762966226112,0.0756115260007735,0.08264271336049395
0.5165,-0.086415371004298,-0.10735484800348014,0.10735484800348014,0.0756114618646139,0.0826916457500868
0.517,-0.0864371855458975,-0.10722191860575954,0.10722191860575954,0.07561014321625116,0.08271183658951786
0.5175,-0.0137606325678569,-0.03393814316081501,0.03393814316081501,0.07560757436681873,0.08282447696109384
0.518,0.1061268425477729,0.08611469215588476,0.08611469215588476,0.07560375990971285,0.08327607290575645
0.5185,0.2058629991079107,0.18480678476775525,0.18480678476775525,0.07559870471876516,0.08390223109838305
0.519,0.2163006433318976,0.1943082525581969,0.1943082525581969,0.07559241394631361,0.08431035328359948
0.5195,0.1194347433147781,0.09816410265899712,0.09816410265899712,0.07558489302117156,0.084437242330985
0.52,-0.0299525670110757,-0.04968125668023601,0.04968125668023601,0.07557614764649513,0.08444059283856596
0.5205,-0.1373448757611289,-0.15685014708312428,0.15685014708312428,0.07556618379754888,0.08447122992088103
0.521,-0.1332580541687919,-0.153952676087342,0.153952676087342,0.07555500771937056,0.08456283586677808
0.5215,-0.019963726442905,-0.04101992873062861,0.04101992873062861,0.0755426259243352,0.08460778199429382
0.522,0.1323356717828626,0.11243600408514857,0.11243600408514857,0.07552904518961975,0.08455902953167911
0.5225,0.2310515051771597,0.21147163380456213,0.21147163380456213,0.07551427255456891,0.08447427926309983
0.523,0.2156830054692899,0.19467237268459198,0.19467237268459198,0.07549831531796318,0.0844484294623323
0.5235,0.0929732968405883,0.07165975598001498,0.07165975598001498,0.07548118103519066,0.08459990951746911
0.524,-0.0658057025366598,-0.08491273262589369,0.08491273262589369,0.07546287751532385,0.08495395514564962
0.5245,-0.1709324916187045,-0.18874905217856852,0.18874905217856852,0.07544341281810311,0.08539233071285396
0.525,-0.1761970980052879,-0.19593595953070725,0.19593595953070725,0.07542279525082889,0.08572783707264993
0.5255,-0.1045368296554944,-0.12606525698686158,0.12606525698686158,0.0754010333651648,0.08579549688480298
0.526,-0.0161168074167501,-0.036265384390457574,0.036265384390457574,0.07537813595385401,0.08563029747705864
0.5265,0.04275738777549,0.02447883538460347,0.02447883538460347,0.0753541120473515,0.0855199571182678
0.527,0.0617112085097288,0.04276377550651922,0.04276377550651922,0.07532897091037521,0.08568461628538229
0.5275,0.0558872928837888,0.03585287526379041,0.03585287526379041,0.075302722038379,0.08599542965564093
0.528,0.0473566640202368,0.02831602906398651,0.02831602906398651,0.07527537515395047,0.08619396978746834
0.5285,0.0501114443960664,0.03192286733583846,0.03192286733583846,0.07524694020313669,0.0862333955999518
0.529,0.0605921749892066,0.040921578203073565,0.040921578203073565,0.07521742735170049,0.08621872553374868
0.5295,0.0614907052039419,0.040888165051664566,0.040888165051664566,0.07518684698130998,0.08619525412411583
0.53,0.0382031336008814,0.019854794178894672,0.019854794178894672,0.07515520968566382,0.0861772261716881
0.5305,-0.0109669138852083,-0.027431402562839102,0.027431402562839102,0.07512252626655468,0.08620536992671905
0.531,-0.0798751316837569,-0.09868996737124666,0.09868996737124666,0.07508880772987292,0.08626815462544321
0.5315,-0.1563109881511173,-0.1781506808830615,0.1781506808830615,0.07505406528155262,0.08632050248714608
0.532,-0.2112467193640112,-0.2313628859368472,0.2313628859368472,0.07501831032346185,0.08635567767317379
0.5325,-0.2035232297710012,-0.21952499970863143,0.21952499970863143,0.07498155444923914,0.08638671393615865
0.533,-0.1177594281014765,-0.13367116600654724,0.13367116600654724,0.07494380944007818,0.08644980159648334
0.5335,0.00495607125099,-0.014933754826171375,0.014933754826171375,0.07490508726046291,0.08657371083157422
0.534,0.0933600056388996,0.07123907212174188,0.07123907212174188,0.07486540005385586,0.08670063438506809
0.5345,0.1096753551493175,0.08980956421059433,0.08980956421059433,0.07482476013834267,0.08674199721350032
0.535,0.0799898777674191,0.06360397924279053,0.06360397924279053,0.07478318000223606,0.08666774473577094
0.5355,0.0589231272319682,0.04295613422659382,0.04295613422659382,0.07474067229964253,0.08650973024522089
0.536,0.0705791068270048,0.051594197502489954,0.051594197502489954,0.07469724984599513,0.08636960889244011
0.5365,0.0901749260486569,0.06848063392940432,0.06848063392940432,0.07465292561355559,0.08633362153698994
0.537,0.0818539532087764,0.06116846427976409,0.06116846427976409,0.0746077127268888,0.08632687583961121
0.5375,0.0444161763289923,0.02699985994635838,0.02699985994635838,0.07456162445831316,0.08624465890869655
0.538,0.0109961020566741,-0.0053631189899931405,0.0053631189899931405,0.07451467422332954,0.08614856086776261
0.5385,0.0084795980148506,-0.010246412241903763,0.010246412241903763,0.07446687557603222,0.0861300199551714
0.539,0.0304259624069793,0.00927460183140495,0.00927460183140495,0.07441824220450438,0.08621921299449938
0.5395,0.052504405798296,0.03171519518488065,0.03171519518488065,0.07436878792620116,0.08640716794615433
0.54,0.0629677706214463,0.04435767122233061,0.04435767122233061,0.07431852668332263,0.08654470912800667
0.5405,0.0689199397774357,0.0515490712673832,0.0515490712673832,0.07426747253817922,0.08656030157572973
0.541,0.0767758409978235,0.058301035861620915,0.058301035861620915,0.07421563966855159,0.08656437453305851
0.5415,0.0772572074041287,0.056515276378659864,0.056515276378659864,0.07416304236304694,0.08652491802544836
0.542,0.0563467137491772,0.034809445241393795,0.034809445241393795,0.07410969501645363,0.08644552391426931
0.5425,0.0179757783223945,-0.0018930443746669814,0.0018930443746669814,0.07405561212509595,0.08644654236925918
0.543,-0.0146692331352273,-0.03252128666380365,0.03252128666380365,0.07400080828219041,0.08644083689270009
0.5435,-0.0256931841637898,-0.04372935181377776,0.04372935181377776,0.0739452981732054,0.08643867149217518
0.544,-0.0266794337891911,-0.0470436184754969,0.0470436184754969,0.0738890965712255,0.08658017271788361
0.5445,-0.0400091238718566,-0.06245973678685078,0.06245973678685078,0.07383221833232162,0.08671341904885287
0.545,-0.0621981188588972,-0.08415613283586526,0.08415613283586526,0.07377467839092813,0.08672770047004694
0.5455,-0.0550322802721578,-0.0740199505826497,0.0740199505826497,0.07371649175522792,0.0867514801485364
0.546,0.0140450739705796,-0.0027412672766684333,0.0027412672766684333,0.07365767350254615,0.08680356068619853
0.5465,0.1202059725112729,0.10152802398130625,0.10152802398130625,0.07359823877475383,0.08684523799952527
0.547,0.1827111541615083,0.15948308818011325,0.15948308818011325,0.07353820277368156,0.08686439389877149
0.5475,0.1364555829879768,0.11171684248101213,0.11171684248101213,0.07347758075654459,0.08681818271177592
0.548,0.0073763748237872,-0.013306566793238266,0.013306566793238266,0.0734163880313797,0.08680911435217063
0.5485,-0.0964677298200393,-0.11259137597572669,0.11259137597572669,0.07335463995249479,0.08691499368899602
0.549,-0.0832466024870763,-0.1005903412860266,0.1005903412860266,0.07329235191593203,0.08689429806389887
0.5495,0.0330471480056525,0.010142821248874327,0.010142821248874327,0.07322953935494558,0.08661654660838833
0.55,0.1470252859115076,0.12167617961278934,0.12167617961278934,0.0731662177354948,0.08636185788533433
0.5505,0.1628376484948259,0.14123466562093112,0.14123466562093112,0.07310240255175408,0.08630409548089618
0.551,0.0743221042786265,0.05707991100904144,0.05707991100904144,0.07303810932164038,0.0863041499146632
0.5515,-0.0480004012556496,-0.06638431848816183,0.06638431848816183,0.0729733535823593,0.08629278838831318
0.552,-0.1292805329615178,-0.15210094677061597,0.15210094677061597,0.07290815088597109,0.08629432567006087
0.5525,-0.1403529560792154,-0.1639892419328554,0.1639892419328554,0.0728425167949778,0.08628086233637663
0.553,-0.0943518785930496,-0.11439764504294471,0.11439764504294471,0.07277646687793272,0.08626453372162347
0.5535,-0.0226028163220341,-0.04093013938473896,0.04093013938473896,0.07271001670507371,0.08626546013067798
0.554,0.0408872574986649,0.01964379652671125,0.01964379652671125,0.07264318184398184,0.08626730638345781
0.5545,0.073249850226609,0.049668714738097884,0.049668714738097884,0.0725759778552673,0.0862630501644769
0.555,0.0785595825730225,0.05736034396696192,0.05736034396696192,0.07250842028828432,0.08622283917917571
0.5555,0.0834289347306823,0.06533783408627962,0.06533783408627962,0.07244052467687695,0.08618096007830806
0.556,0.1054250918303122,0.08588063146520299,0.08588063146520299,0.07237230653515753,0.08619465261381773
0.5565,0.1297093040502827,0.106589554388693,0.106589554388693,0.07230378135331943,0.08614145196207208
0.557,0.1259173865069387,0.10311317645003797,0.10311317645003797,0.07223496459348597,0.08594039863429993
0.5575,0.0835271283885591,0.06440204062184697,0.06440204062184697,0.0721658716855968,0.08574257092851022
0.558,0.020571488774348,0.0025286369568376654,0.0025286369568376654,0.07209651802333354,0.0856718095082857
0.5585,-0.0371783129302619,-0.05827659624758949,0.05827659624758949,0.07202691896008655,0.08571214200636414
0.559,-0.0717352724216889,-0.09502356544161886,0.09502356544161886,0.07195708980496437,0.08578618750336614
0.5595,-0.0703869808402998,-0.0914671995272013,0.0914671995272013,0.07188704581884771,0.08582263957180396
0.56,-0.0272867453569914,-0.04496532699424171,0.04496532699424171,0.07181680221048937,0.08581987183890674
0.5605,0.0402487583558522,0.022046895981197606,0.022046895981197606,0.0717463741326622,0.08575464761686515
0.561,0.0865874852826359,0.06469017568227982,0.06469017568227982,0.07167577667835617,0.08558934950907562
0.5615,0.0692932264008708,0.04623810673441278,0.04623810673441278,0.07160502487702652,0.08545465658906312
